t ECG
0.0 0.00010475318532082094
0.003906296521252396 5.531395437552453e-05
0.007812593042504793 4.127565423056382e-05
0.01171888956375719 2.2888532845044662e-07
0.015625186085009585 -6.538490882734417e-05
0.01953148260626198 -0.00011268787670710307
0.02343777912751438 -0.0001360341802090486
0.027344075648766775 -0.000130083161669337
0.03125037217001917 -0.00014900434882124055
0.03515666869127157 -0.00019584954604409858
0.03906296521252396 -0.00022453650720988787
0.04296926173377636 -0.0002310978866254673
0.04687555825502876 -0.00020698863202868695
0.05078185477628115 -0.0002013427939269093
0.05468815129753355 -0.00023445487144274052
0.05859444781878594 -0.00025352864881361106
0.06250074434003834 -0.00025383382925154495
0.06640704086129073 -0.00021934843976501107
0.07031333738254314 -0.00019218738078889143
0.07421963390379553 -0.0002256046387426566
0.07812593042504792 -0.0002552071412222476
0.08203222694630033 -0.0002552071412222476
0.08593852346755272 -0.00023048752574959943
0.08984481998880511 -0.000202563515678645
0.09375111651005752 -0.00022285801480125125
0.09765741303130991 -0.00025307087815671015
0.1015637095525623 -0.00025764858472571904
0.1054700060738147 -0.00023323414969100481
0.1093763025950671 -0.00020119020370794232
0.1132825991163195 -0.00021614404516670483
0.11718889563757189 -0.0002458991378652628
0.12109519215882429 -0.00025444419012741283
0.12500148868007668 -0.00023537041275654232
0.1289077852013291 -0.00020302128633554588
0.13281408172258147 -0.00021461814297703516
0.13672037824383387 -0.00024254215304798962
0.14062667476508628 -0.00025490196078431374
0.14453297128633866 -0.0002466620889600977
0.14843926780759106 -0.00021385519188220033
0.15234556432884347 -0.0002191958495460441
0.15625186085009585 -0.0002481879911497673
0.16015815737134825 -0.0002605477988860914
0.16406445389260066 -0.00025352864881361106
0.16797075041385304 -0.00022499427786678875
0.17187704693510544 -0.00022865644312199587
0.17578334345635785 -0.00025810635538262
0.17968963997761023 -0.0002761120012207218
0.18359593649886263 -0.0002715342946517128
0.18750223302011504 -0.00023720149538414588
0.19140852954136742 -0.00023964293888761732
0.19531482606261982 -0.0002767223620965896
0.1992211225838722 -0.00029365987640192265
0.2031274191051246 -0.00029030289158464947
0.207033715626377 -0.00025764858472571904
0.2109400121476294 -0.0002486457618066682
0.2148463086688818 -0.0002823682001983673
0.2187526051901342 -0.0003055619134813459
0.22265890171138658 -0.00030418860151064316
0.226565198232639 -0.00026909285114824137
0.2304714947538914 -0.0002489509422446021
0.23437779127514377 -0.0002785534447241932
0.23828408779639618 -0.0003080033569848173
0.24219038431764858 -0.0003151750972762646
0.24609668083890096 -0.00029030289158464947
0.25000297736015337 -0.0002674143587396048
0.2539092738814058 -0.0002840466926070039
0.2578155704026582 -0.00030785076676585033
0.26172186692391053 -0.0003202105745021744
0.26562816344516293 -0.00029747463187609674
0.26953445996641534 -0.0002657358663309682
0.27344075648766775 -0.0002841992828259709
0.27734705300892015 -0.00031319142442969407
0.28125334953017256 -0.0003241779201953155
0.2851596460514249 -0.00030937666895552
0.2890659425726773 -0.0002803845273517968
0.2929722390939297 -0.0002907606622415503
0.2968785356151821 -0.0003156328679331655
0.30078483213643453 -0.00032509346150911726
0.30469112865768694 -0.00031029221026932175
0.3085974251789393 -0.00027946898603799496
0.3125037217001917 -0.00028801403830014497
0.3164100182214441 -0.0003151750972762646
0.3203163147426965 -0.00032951857785915923
0.3242226112639489 -0.00031654840924696725
0.3281289077852013 -0.0002768749523155566
0.33203520430645367 -0.00028267338063630123
0.3359415008277061 -0.0003160906385900664
0.3398477973489585 -0.00032814526588845655
0.3437540938702109 -0.0003151750972762646
0.3476603903914633 -0.0002768749523155566
0.3515666869127157 -0.0002771801327534905
0.35547298343396805 -0.00031029221026932175
0.35937927995522045 -0.00032875562676432443
0.36328557647647286 -0.0003253986419470512
0.36719187299772527 -0.00028770885786221103
0.37109816951897767 -0.00027870603494316017
0.3750044660402301 -0.0003075455863279164
0.37891076256148243 -0.00032310978866254675
0.38281705908273483 -0.00032188906691081105
0.38672335560398724 -0.0002881666285191119
0.39062965212523965 -0.0002747386892500191
0.39453594864649205 -0.00030693522545204857
0.3984422451677444 -0.0003292133974212253
0.4023485416889968 -0.00033455405508506903
0.4062548382102492 -0.00030418860151064316
0.4101611347315016 -0.0002764171816586557
0.414067431252754 -0.00029610131990539406
0.41797372777400643 -0.0003147173266193637
0.4218800242952588 -0.000322194247348745
0.4257863208165112 -0.0003022049286640726
0.4296926173377636 -0.0002759594110017548
0.433598913859016 -0.0002957961394674601
0.4375052103802684 -0.0003217364766918441
0.4414115069015208 -0.0003292133974212253
0.44531780342277316 -0.0003084611276417182
0.44922409994402557 -0.0002822156099794003
0.453130396465278 -0.00029991607537956815
0.4570366929865304 -0.0003209735255970093
0.4609429895077828 -0.0003290608072022583
0.4648492860290352 -0.0003116655222400244
0.46875558255028754 -0.0002780956740672923
0.47266187907153995 -0.00029793240253299765
0.47656817559279235 -0.00032860303654535746
0.48047447211404476 -0.0003325703822384985
0.48438076863529717 -0.00031334401464866104
0.48828706515654957 -0.0002785534447241932
0.4921933616778019 -0.0002899977111467155
0.4960996581990543 -0.0003217364766918441
0.5000059547203067 -0.0003353170061799038
0.5039122512415591 -0.00032112611581597625
0.5078185477628115 -0.00027962157625696193
0.511724844284064 -0.00028130006866559855
0.5156311408053164 -0.00031105516136415654
0.5195374373265688 -0.00033119707026779585
0.5234437338478211 -0.00032875562676432443
0.5273500303690735 -0.00028709849698634315
0.5312563268903259 -0.0002809948882276646
0.5351626234115783 -0.00031364919508659493
0.5390689199328307 -0.00033577477683680474
0.5429752164540831 -0.0003376058594644084
0.5468815129753355 -0.00029610131990539406
0.5507878094965879 -0.0002718394750896467
0.5546941060178403 -0.00028755626764324406
0.5586004025390927 -0.00029121843289845123
0.5625066990603451 -0.0002719920653086137
0.5664129955815975 -0.00022957198443579767
0.5703192921028498 -0.00020653086137178606
0.5742255886241022 -0.00021614404516670483
0.5781318851453546 -0.00022148470283054854
0.582038181666607 -0.00020531013962005036
0.5859444781878594 -0.00016075379568169682
0.5898507747091118 -0.0001424429694056611
0.5937570712303643 -0.00016578927290760662
0.5976633677516167 -0.00020119020370794232
0.6015696642728691 -0.0002349126420996414
0.6054759607941215 -0.0002101930266269932
0.6093822573153739 -0.0001833371480888075
0.6132885538366263 -0.00021782253757534142
0.6171948503578786 -0.0002458991378652628
0.621101146879131 -0.00027016098268101016
0.6250074434003834 -0.00027016098268101016
0.6289137399216358 -0.0002529182879377432
0.6328200364428882 -0.0002990005340657664
0.6367263329641406 -0.0003488975356679637
0.640632629485393 -0.0003600366216525521
0.6445389260066454 -0.0003479819943541619
0.6484452225278978 -0.00032234683756771196
0.6523515190491502 -0.00033714808880750747
0.6562578155704026 -0.0003685816739147021
0.6601641120916549 -0.00038185702296482794
0.6640704086129073 -0.00037132829785610743
0.6679767051341597 -0.00033806363012130924
0.6718830016554121 -0.0003426413366903182
0.6757892981766646 -0.00037376974135957885
0.679695594697917 -0.0003907072556649119
0.6836018912191694 -0.0003830777447165637
0.6875081877404218 -0.000347676813916228
0.6914144842616742 -0.0003420309758144503
0.6953207807829266 -0.0003694972152285039
0.699227077304179 -0.00038185702296482794
0.7031333738254314 -0.000373311970702678
0.7070396703466837 -0.0003412680247196155
0.7109459668679361 -0.000330434119172961
0.7148522633891885 -0.0003569848172732128
0.7187585599104409 -0.00037178606851300834
0.7226648564316933 -0.0003881132219424735
0.7265711529529457 -0.0003862821393148699
0.7304774494741981 -0.0003611047531853208
0.7343837459954505 -0.0003569848172732128
0.7382900425167029 -0.00029793240253299765
0.7421963390379553 -0.0001723506523231861
0.7461026355592077 2.1438925764858474e-05
0.7500089320804602 0.0003662928206301976
0.7539152286017125 0.0008077363241016251
0.7578215251229649 0.0012484168764782177
0.7617278216442173 0.0015946440833142597
0.7656341181654697 0.0018484016174563213
0.7695404146867221 0.002019760433356222
0.7734467112079745 0.0018964675364309147
0.7773530077292269 0.0013927672236209658
0.7812593042504793 0.0006314946211947814
0.7851656007717317 -6.050202182040131e-05
0.7890718972929841 -0.0003354695963988708
0.7929781938142365 -0.000373159380483711
0.7968844903354888 -0.0004041351949340047
0.8007907868567412 -0.0003795681696803235
0.8046970833779936 -0.000326314183260853
0.808603379899246 -0.00027870603494316017
0.8125096764204984 -0.00024254215304798962
0.8164159729417508 -0.00021217669947356374
0.8203222694630032 -0.00018898298619058517
0.8242285659842556 -0.00017006179903868163
0.828134862505508 -0.0001364919508659495
0.8320411590267605 -0.00013954375524528878
0.8359474555480129 -0.00016533150225070574
0.8398537520692653 -0.00017616540779736022
0.8437600485905176 -0.00016487373159380483
0.84766634511177 -0.00012733653772793163
0.8515726416330224 -0.00012443732356755933
0.8554789381542748 -0.00014305333028152896
0.8593852346755272 -0.00014854657816433967
0.8632915311967796 -0.00013832303349355307
0.867197827718032 -9.452964065003433e-05
0.8711041242392844 -8.735790035858701e-05
0.8750104207605368 -0.00011268787670710307
0.8789167172817892 -0.00011696040283817808
0.8828230138030416 -0.00010307469291218433
0.8867293103242939 -5.897611963073167e-05
0.8906356068455463 -4.5090409704737927e-05
0.8945419033667987 -6.981002517738613e-05
0.8984481998880511 -7.331960021362631e-05
0.9023544964093035 -5.9128709849698634e-05
0.906260792930556 -1.548790722514687e-05
0.9101670894518084 7.705806057831694e-06
0.9140733859730608 -1.7624170290684368e-05
0.9179796824943132 -2.8458075837338827e-05
0.9218859790155656 -1.7624170290684368e-05
0.925792275536818 2.4643320363164722e-05
0.9296985720580704 5.745021744106202e-05
0.9336048685793227 3.959716182192721e-05
0.9375111651005751 2.9221026932173648e-05
0.9414174616218275 3.715571831845579e-05
0.9453237581430799 7.652399481193256e-05
0.9492300546643323 0.0001253528648813611
0.9531363511855847 0.00011924925612268255
0.9570426477068371 0.00010475318532082094
0.9609489442280895 0.0001134508278019379
0.9648552407493419 0.00014885175860227358
0.9687615372705943 0.00019401846341649502
0.9726678337918467 0.00020210574502174412
0.9765741303130991 0.00019981689173723965
0.9804804268343514 0.00020958266575112536
0.9843867233556038 0.00025047684443427177
0.9882930198768562 0.00030907148851758604
0.9921993163981087 0.0003199053940642405
0.9961056129193611 0.0003185320820935378
1.0000119094406135 0.00033562218661783777
1.0039182059618659 0.0003685816739147021
1.0078245024831183 0.000424277103837644
1.0117307990043707 0.00044411383230334934
1.015637095525623 0.000432974746318761
1.0195433920468755 0.00044197756923781186
1.023449688568128 0.0004792095826657512
1.0273559850893803 0.0005304798962386512
1.0312622816106327 0.0005463492790112153
1.0351685781318851 0.0005355153734645609
1.0390748746531375 0.0005368886854352636
1.04298117117439 0.0005625238422217136
1.0468874676956421 0.000612115663385977
1.0507937642168945 0.0006264591439688717
1.054700060738147 0.0005973144121461814
1.0586063572593993 0.0005736629282063019
1.0625126537806517 0.0005678644998855574
1.0664189503019041 0.0005867856870374609
1.0703252468231566 0.0005747310597390707
1.074231543344409 0.0005088120851453421
1.0781378398656614 0.00044289311055161363
1.0820441363869138 0.0003968108644235904
1.0859504329081662 0.0003778896772716869
1.0898567294294186 0.00034111543450064853
1.093763025950671 0.0002570382238498512
1.0976693224719234 0.0001735713740749218
1.1015756189931758 0.00010627908751049057
1.1054819155144282 7.652399481193256e-05
1.1093882120356806 5.378805218585489e-05
1.113294508556933 -1.2130922407873655e-05
1.1172008050781854 -7.92706187533379e-05
1.1211071015994378 -0.0001305409323262379
1.1250133981206902 -0.00014625772487983523
1.1289196946419426 -0.00014595254444190129
1.132825991163195 -0.00018699931334401467
1.1367322876844472 -0.00022835126268406196
1.1406385842056996 -0.0002489509422446021
1.144544880726952 -0.00024086366063935302
1.1484511772482044 -0.00021782253757534142
1.1523574737694569 -0.00024177920195315482
1.1562637702907093 -0.00027504386968795304
1.1601700668119617 -0.0002823682001983673
1.164076363333214 -0.0002632944228274968
1.1679826598544665 -0.00023155565728236822
1.1718889563757189 -0.00024574654764629585
1.1757952528969713 -0.0002761120012207218
1.1797015494182237 -0.00028450446326390476
1.183607845939476 -0.00026970321202410925
1.1875141424607285 -0.0002341496910048066
1.191420438981981 -0.00023735408560311285
1.1953267355032333 -0.0002700083924620432
1.1992330320244857 -0.00028709849698634315
1.2031393285457381 -0.00027763790341039143
1.2070456250669905 -0.00023781185626001373
1.210951921588243 -0.0002277409018081941
1.2148582181094953 -0.0002571908140688182
1.2187645146307478 -0.00027962157625696193
1.2226708111520002 -0.00027382314793621734
1.2265771076732526 -0.0002358281834134432
1.2304834041945047 -0.00022362096589608607
1.2343897007157572 -0.00024803540093080035
1.2382959972370096 -0.0002681773098344396
1.242202293758262 -0.0002718394750896467
1.2461085902795144 -0.00024116884107728697
1.2500148868007668 -0.00022545204852368963
1.2539211833220192 -0.0002507820248722057
1.2578274798432716 -0.00027382314793621734
1.261733776364524 -0.00027946898603799496
1.2656400728857764 -0.0002516975661860075
1.2695463694070288 -0.00023445487144274052
1.2734526659282812 -0.00025566491187914854
1.2773589624495336 -0.00027504386968795304
1.281265258970786 -0.0002814526588845655
1.2851715554920384 -0.00025749599450675207
1.2890778520132908 -0.00024040588998245214
1.2929841485345432 -0.0002637521934843977
1.2968904450557956 -0.00028130006866559855
1.300796741577048 -0.00028633554589150835
1.3047030380983005 -0.0002639047837033646
1.3086093346195529 -0.00023903257801174946
1.3125156311408053 -0.00026207370107576107
1.3164219276620577 -0.0002899977111467155
1.3203282241833099 -0.00029671168078126194
1.3242345207045623 -0.0002687876707103075
1.3281408172258147 -0.00023598077363241017
1.332047113747067 -0.0002553597314412146
1.3359534102683195 -0.00028572518501564047
1.339859706789572 -0.0002990005340657664
1.3437660033108243 -0.00028007934691386284
1.3476722998320767 -0.00024177920195315482
1.351578596353329 -0.00025429159990844586
1.3554848928745815 -0.00028755626764324406
1.359391189395834 -0.0003002212558175021
1.3632974859170863 -0.0002884718089570458
1.3672037824383387 -0.00025444419012741283
1.3711100789595911 -0.00025352864881361106
1.3750163754808435 -0.0002814526588845655
1.378922672002096 -0.00030174715800717174
1.3828289685233484 -0.0002951857785915923
1.3867352650446008 -0.00025764858472571904
1.3906415615658532 -0.00025352864881361106
1.3945478580871056 -0.0002819104295414664
1.398454154608358 -0.0002988479438467994
1.4023604511296104 -0.0002976272220950637
1.4062667476508628 -0.0002652780956740673
1.410173044172115 -0.00025261310749980924
1.4140793406933674 -0.0002768749523155566
1.4179856372146198 -0.0002925917448691539
1.4218919337358722 -0.00029228656443121997
1.4257982302571246 -0.0002637521934843977
1.429704526778377 -0.00024757763027389944
1.4336108232996294 -0.00027382314793621734
1.4375171198208818 -0.00029320210574502174
1.4414234163421342 -0.00029167620355535214
1.4453297128633866 -0.0002605477988860914
1.449236009384639 -0.00023781185626001373
1.4531423059058914 -0.00026466773479819945
1.4570486024271438 -0.0002895399404898146
1.4609548989483963 -0.000292133974212253
1.4648611954696487 -0.000266498817425803
1.468767491990901 -0.00023994811932555126
1.4726737885121535 -0.000262378881513695
1.4765800850334059 -0.00028938735027084764
1.4804863815546583 -0.0002957961394674601
1.4843926780759107 -0.0002700083924620432
1.488298974597163 -0.0002336919203479057
1.4922052711184155 -0.00025352864881361106
1.496111567639668 -0.0002854200045777066
1.5000178641609203 -0.00029625391012436103
1.5039241606821725 -0.000279163805600061
1.507830457203425 -0.00023811703669794764
1.5117367537246773 -0.00024406805523765926
1.5156430502459297 -0.0002742809185931182
1.5195493467671821 -0.00028587777523460744
1.5234556432884345 -0.00027367055771725037
1.527361939809687 -0.00023689631494621194
1.5312682363309393 -0.00023720149538414588
1.5351745328521917 -0.00026283665217059586
1.5390808293734441 -0.0002747386892500191
1.5429871258946966 -0.0002695506218051423
1.546893422415949 -0.00023598077363241017
1.5507997189372014 -0.00023323414969100481
1.5547060154584538 -0.0002619211108567941
1.5586123119797062 -0.00027504386968795304
1.5625186085009586 -0.000266498817425803
1.566424905022211 -0.00023231860837720302
1.5703312015434634 -0.00022499427786678875
1.5742374980647158 -0.0002521553368429084
1.5781437945859682 -0.00027016098268101016
1.5820500911072206 -0.0002686350804913405
1.585956387628473 -0.00023537041275654232
1.5898626841497254 -0.00022407873655298696
1.5937689806709776 -0.00025490196078431374
1.59767527719223 -0.0002718394750896467
1.6015815737134824 -0.000266498817425803
1.6054878702347348 -0.00023399710078583964
1.6093941667559872 -0.00021431296253910124
1.6133004632772396 -0.0002405584802014191
1.617206759798492 -0.00026344701304646374
1.6211130563197444 -0.0002648203250171664
1.6250193528409969 -0.00023506523231860837
1.6289256493622493 -0.0002089723048752575
1.6328319458835017 -0.00023308155947203784
1.636738242404754 -0.0002639047837033646
1.6406445389260065 -0.0002724498359655146
1.6445508354472589 -0.00024681467917906464
1.6484571319685113 -0.00021385519188220033
1.6523634284897637 -0.00022972457465476464
1.656269725011016 -0.00025810635538262
1.6601760215322685 -0.00026909285114824137
1.664082318053521 -0.0002515449759670405
1.6679886145747733 -0.00021782253757534142
1.6718949110960257 -0.0002277409018081941
1.6758012076172781 -0.0002565804531929503
1.6797075041385305 -0.00026924544136720834
1.6836138006597827 -0.0002565804531929503
1.6875200971810351 -0.00022285801480125125
1.6914263937022875 -0.00022697795071335928
1.69533269022354 -0.0002520027466239414
1.6992389867447923 -0.00026344701304646374
1.7031452832660448 -0.00025352864881361106
1.7070515797872972 -0.00021934843976501107
1.7109578763085496 -0.0002225528343633173
1.714864172829802 -0.0002489509422446021
1.7187704693510544 -0.00025764858472571904
1.7226767658723068 -0.00025108720531013965
1.7265830623935592 -0.00021553368429083698
1.7304893589148116 -0.0002098878461890593
1.734395655436064 -0.00023964293888761732
1.7383019519573164 -0.00024757763027389944
1.7422082484785688 -0.0002310978866254673
1.7461145449998212 -0.0001863889524681468
1.7500208415210736 -0.00015907530327306018
1.753927138042326 -0.00017097734035248342
1.7578334345635784 -0.00018135347524223696
1.7617397310848308 -0.0001705195696955825
1.7656460276060832 -0.00012016479743648433
1.7695523241273357 -8.476386663614863e-05
1.7734586206485878 -0.00010078583962767987
1.7773649171698402 -0.00012077515831235218
1.7812712136910926 -0.00011970702677958343
1.785177510212345 -8.87312123292897e-05
1.7890838067335975 -8.827344167238881e-05
1.7929901032548499 -0.00013420309758144502
1.7968963997761023 -0.00015663385976958876
1.8008026962973547 -0.00015999084458686197
1.804708992818607 -0.00013954375524528878
1.8086152893398595 -0.00012199588006408789
1.812521585861112 -0.00015846494239719233
1.8164278823823643 -0.00020485236896314947
1.8203341789036167 -0.00023872739757381552
1.8242404754248691 -0.00024040588998245214
1.8281467719461215 -0.0002225528343633173
1.832053068467374 -0.0002454413672083619
1.8359593649886263 -0.00027565423056382087
1.8398656615098787 -0.00028679331654840926
1.8437719580311311 -0.0002747386892500191
1.8476782545523835 -0.0002477302204928664
1.851584551073636 -0.0002597848477912566
1.8554908475948884 -0.00029121843289845123
1.8593971441161408 -0.0003066300450141146
1.8633034406373932 -0.00029411764705882356
1.8672097371586454 -0.00025963225757228965
1.8711160336798978 -0.0002657358663309682
1.8750223302011502 -0.0002983901731898985
1.8789286267224026 -0.00030693522545204857
1.882834923243655 -0.0002925917448691539
1.8867412197649074 -0.00025490196078431374
1.8906475162861598 -0.00025261310749980924
1.8945538128074122 -0.00028755626764324406
1.8984601093286646 -0.0002956435492484932
1.902366405849917 -0.000283588921950103
1.9062727023711694 -0.0002491035324635691
1.9101789988924218 -0.0002521553368429084
1.9140852954136742 -0.00031288624399176013
1.9179915919349266 -0.00033363851377126726
1.921897888456179 -0.000304646372167544
1.9258041849774314 -0.00020119020370794232
1.9297104814986838 -7.255664911879149e-05
1.9336167780199363 3.410391393911651e-05
1.9375230745411887 0.0002939650568398566
1.941429371062441 0.0007230487525749599
1.9453356675836935 0.0011866178377965973
1.9492419641049459 0.0015690089265278095
1.9531482606261983 0.0018168154421301596
1.9570545571474505 0.0019739833676661327
1.9609608536687029 0.0018973830777447166
1.9648671501899553 0.0015081254291599909
1.9687734467112077 0.0008675516899366751
1.97267974323246 0.00011238269626916915
1.9765860397537125 -0.00032951857785915923
1.980492336274965 -0.00037682154573891814
1.9843986327962173 -0.00031197070267795836
1.9883049293174697 -0.0002346074616617075
1.9922112258387221 -0.00021339742122529945
1.9961175223599745 -0.00021080338750286106
2.000023818881227 -0.00015770199130235753
2.003930115402479 -8.964675364309148e-05
2.0078364119237317 -4.0512703135729004e-05
2.011742708444984 -5.7755397878995964e-05
2.0156490049662366 -9.407186999313344e-05
2.0195553014874887 -9.98702983138781e-05
2.0234615980087414 -8.11017013809415e-05
2.0273678945299936 -4.554818036163882e-05
2.031274191051246 -5.1499198901350423e-05
2.0351804875724984 -7.759212634470131e-05
2.039086784093751 -8.598458838788434e-05
2.042993080615003 -6.767376211184863e-05
2.046899377136256 -2.021820401312276e-05
2.050805673657508 -1.777676050965133e-05
2.0547119701787606 -4.6463721675440604e-05
2.058618266700013 -5.043106736858167e-05
2.0625245632212654 -3.303578240634776e-05
2.0664308597425176 9.842069123369192e-06
2.0703371562637702 2.3422598611429008e-05
2.0742434527850224 6.866559853513392e-07
2.078149749306275 -9.994659342336156e-06
2.0820560458275272 1.2970168612191961e-06
2.08596234234878 4.234378576333257e-05
2.089868638870032 6.202792401007095e-05
2.0937749353912842 4.676890211337453e-05
2.097681231912537 3.822384985122454e-05
2.101587528433789 4.448004882887007e-05
2.1054938249550417 8.354314488441291e-05
2.109400121476294 0.00010826276035706111
2.1133064179975465 9.407186999313344e-05
2.1172127145187987 9.178301670862899e-05
2.1211190110400513 0.00010292210269321736
2.1250253075613035 0.0001393911650263218
2.128931604082556 0.00017036697947661557
2.1328379006038083 0.00015938048371099412
2.136744197125061 0.00015281910429541467
2.140650493646313 0.00016548409246967268
2.1445567901675657 0.0002072938124666209
2.148463086688818 0.00024879835202563515
2.1523693832100705 0.00024208438239108873
2.1562756797313227 0.00023353933012893875
2.1601819762525754 0.00025108720531013965
2.1640882727738275 0.00029701686121919583
2.16799456929508 0.00034859235523002974
2.1719008658163323 0.00035378042267490657
2.175807162337585 0.00034859235523002974
2.179713458858837 0.00036583504997329667
2.1836197553800893 0.00041084916456855114
2.187526051901342 0.00046974898908979935
2.191432348422594 0.00048561837186236365
2.195338644943847 0.0004784466315709163
2.199244941465099 0.0004888227664606699
2.2031512379863516 0.0005281910429541467
2.207057534507604 0.000586480506599527
2.2109638310288564 0.000603112840466926
2.2148701275501086 0.0005931944762340735
2.218776424071361 0.0005976195925841153
2.2226827205926134 0.0006241702906843672
2.226589017113866 0.0006772716868848707
2.230495313635118 0.0006952773327229724
2.234401610156371 0.0006789501792935073
2.238307906677623 0.0006746776531624324
2.2422142031988757 0.0006841382467383841
2.246120499720128 0.000714656290531777
2.2500267962413805 0.000718623636224918
2.2539330927626327 0.0006769665064469368
2.2578393892838853 0.0006368352788586251
2.2617456858051375 0.0006105897611963074
2.26565198232639 0.0006021972991531243
2.2695582788476423 0.0005657282368200198
2.2734645753688945 0.0004872968642710002
2.277370871890147 0.000415884641794461
2.2812771684113993 0.000360341802090486
2.285183464932652 0.0003310444800488289
2.289089761453904 0.00028877698939497976
2.2929960579751567 0.0002037842374303807
2.296902354496409 0.00012825207904173342
2.3008086510176615 7.789730678263524e-05
2.3047149475389137 6.294346532387273e-05
2.3086212440601663 4.448004882887007e-05
2.3125275405814185 -2.021820401312276e-05
2.316433837102671 -7.469291218432899e-05
2.3203401336239233 -0.00010170138094148165
2.324246430145176 -9.788662546730755e-05
2.328152726666428 -8.384832532234683e-05
2.3320590231876808 -0.00011757076371404593
2.335965319708933 -0.00016029602502479594
2.3398716162301856 -0.00017708094911116198
2.3437779127514378 -0.0001595330739299611
2.3476842092726904 -0.0001274891279468986
2.3515905057939426 -0.00014091706721599146
2.355496802315195 -0.00017326619363698786
2.3594030988364474 -0.00018699931334401467
2.3633093953577 -0.0001692988479438468
2.367215691878952 -0.00013405050736247807
2.3711219884002044 -0.00014229037918669414
2.375028284921457 -0.0001689936675059129
2.378934581442709 -0.00018013275349050125
2.382840877963962 -0.000168535896849012
2.386747174485214 -0.00013405050736247807
2.3906534710064666 -0.00013496604867627984
2.394559767527719 -0.0001612115663385977
2.3984660640489714 -0.00017372396429388875
2.4023723605702236 -0.00016533150225070574
2.4062786570914763 -0.00013206683451590754
2.4101849536127284 -0.00012977798123140307
2.414091250133981 -0.00015678644998855573
2.4179975466552333 -0.0001697566186007477
2.421903843176486 -0.00016487373159380483
2.425810139697738 -0.00013496604867627984
2.4297164362189907 -0.00012977798123140307
2.433622732740243 -0.00015999084458686197
2.4375290292614955 -0.00017616540779736022
2.4414353257827477 -0.00017112993057145036
2.4453416223040003 -0.00013588158999008163
2.4492479188252525 -0.00012062256809338521
2.453154215346505 -0.0001526665140764477
2.4570605118677573 -0.00017509727626459142
2.4609668083890095 -0.0001743343251697566
2.464873104910262 -0.0001441214618142977
2.4687794014315143 -0.00012397955291065842
2.472685697952767 -0.00015205615320057982
2.476591994474019 -0.00017860685130083163
2.4804982909952717 -0.00018501564049744413
2.484404587516524 -0.0001612115663385977
2.4883108840377766 -0.00013633936064698252
2.4922171805590287 -0.0001581597619592584
2.4961234770802814 -0.00018699931334401467
2.5000297736015336 -0.00019890135042343785
2.503936070122786 -0.0001783016708628977
2.5078423666440384 -0.00014732585641260396
2.511748663165291 -0.00016426337071793698
2.515654959686543 -0.00019188220035095752
2.519561256207796 -0.00020302128633554588
2.523467552729048 -0.00018867780575265126
2.5273738492503006 -0.00016044861524376288
2.531280145771553 -0.0001718928816662852
2.5351864422928054 -0.0001949340047302968
2.5390927388140576 -0.00020653086137178606
2.5429990353353102 -0.00019539177538719767
2.5469053318565624 -0.00016350041962310215
2.5508116283778146 -0.0001743343251697566
2.5547179248990672 -0.0002034790569924468
2.5586242214203194 -0.00021568627450980395
2.562530517941572 -0.00020561532005798427
2.5664368144628242 -0.0001697566186007477
2.570343110984077 -0.00017250324254215304
2.574249407505329 -0.00020210574502174412
2.5781557040265817 -0.00021431296253910124
2.582062000547834 -0.00020500495918211641
2.5859682970690865 -0.00017158770122835127
2.5898745935903387 -0.00017280842298008698
2.5937808901115913 -0.00020439459830624856
2.5976871866328435 -0.00021934843976501107
2.601593483154096 -0.00021385519188220033
2.6054997796753483 -0.0001766231784542611
2.609406076196601 -0.00016655222400244145
2.613312372717853 -0.00019798580910963606
2.6172186692391057 -0.0002170595864805066
2.621124965760358 -0.00021599145494773786
2.6250312622816105 -0.00018135347524223696
2.6289375588028627 -0.00016075379568169682
2.6328438553241154 -0.00018699931334401467
2.6367501518453675 -0.00021263447013046463
2.6406564483666197 -0.00021980621042191195
2.6445627448878724 -0.00018989852750438696
2.6484690414091245 -0.00016243228809033341
2.652375337930377 -0.0001842526894026093
2.6562816344516293 -0.00020973525597009233
2.660187930972882 -0.0002175173571374075
2.664094227494134 -0.00019462882429236288
2.668000524015387 -0.0001680781261921111
2.671906820536639 -0.000185626001373312
2.6758131170578916 -0.0002098878461890593
2.679719413579144 -0.00021690699626153966
2.6836257101003964 -0.0001966124971389334
2.6875320066216486 -0.0001689936675059129
2.6914383031429012 -0.00018410009918364234
2.6953445996641534 -0.00020927748531319144
2.699250896185406 -0.00021553368429083698
2.703157192706658 -0.00019462882429236288
2.707063489227911 -0.0001633478294041352
2.710969785749163 -0.0001718928816662852
2.7148760822704157 -0.00019676508735790035
2.718782378791668 -0.00020836194399938965
2.7226886753129205 -0.0001923399710078584
2.7265949718341727 -0.00016044861524376288
2.730501268355425 -0.00017204547188525216
2.7344075648766775 -0.00020180056458381018
2.7383138613979296 -0.0002140077821011673
2.7422201579191823 -0.00020210574502174412
2.7461264544404345 -0.00016472114137483789
2.750032750961687 -0.00016609445334554054
2.7539390474829393 -0.00019996948195620662
2.757845344004192 -0.0002179751277943084
2.761751640525444 -0.0002098878461890593
2.7656579370466967 -0.00017250324254215304
2.769564233567949 -0.00016533150225070574
2.7734705300892015 -0.0001944762340733959
2.7773768266104537 -0.00021126115815976198
2.7812831231317063 -0.0002101930266269932
2.7851894196529585 -0.00017601281757839325
2.789095716174211 -0.00015938048371099412
2.7930020126954633 -0.0001863889524681468
2.796908309216716 -0.00020485236896314947
2.800814605737968 -0.00020576791027695124
2.8047209022592208 -0.00017708094911116198
2.808627198780473 -0.00015770199130235753
2.8125334953017256 -0.00018150606546120393
2.8164397918229778 -0.00019844357976653697
2.82034608834423 -0.00020042725261310753
2.8242523848654826 -0.00017570763714045928
2.8281586813867348 -0.0001505302510109102
2.8320649779079874 -0.00017204547188525216
2.8359712744292396 -0.00019279774166475932
2.839877570950492 -0.0001944762340733959
2.8437838674717444 -0.0001714351110093843
2.847690163992997 -0.00014641031509880217
2.851596460514249 -0.00016655222400244145
2.855502757035502 -0.00018867780575265126
2.859409053556754 -0.00019417105363546197
2.8633153500780066 -0.00017463950560769054
2.867221646599259 -0.00014351110093842984
2.8711279431205114 -0.00016350041962310215
2.8750342396417636 -0.00019310292210269323
2.8789405361630163 -0.0001985961699855039
2.8828468326842684 -0.00018135347524223696
2.886753129205521 -0.00014457923247119858
2.8906594257267733 -0.0001531242847333486
2.894565722248026 -0.0001868467231250477
2.898472018769278 -0.0002008850232700084
2.9023783152905307 -0.00018898298619058517
2.906284611811783 -0.00014854657816433967
2.910190908333035 -0.00014763103685053788
2.9140972048542877 -0.00018226901655603875
2.91800350137554 -0.00019813839932860303
2.9219097978967925 -0.00018959334706645305
2.9258160944180447 -0.00015434500648508432
2.9297223909392973 -0.00014488441290913255
2.9336286874605495 -0.00017204547188525216
2.937534983981802 -0.00019279774166475932
2.9414412805030543 -0.00019050888838025482
2.945347577024307 -0.00015754940108339056
2.949253873545559 -0.00014625772487983523
2.9531601700668118 -0.0001702143892576486
2.957066466588064 -0.00018989852750438696
2.9609727631093166 -0.0001914244296940566
2.9648790596305687 -0.0001595330739299611
2.9687853561518214 -0.00014595254444190129
2.9726916526730736 -0.0001702143892576486
2.976597949194326 -0.0001847104600595102
2.9805042457155784 -0.0001847104600595102
2.984410542236831 -0.00015205615320057982
2.988316838758083 -0.00012291142137788968
2.992223135279336 -0.00013450827801937896
2.996129431800588 -0.00013405050736247807
3.0000357283218406 -0.00011314564736400397
3.003942024843093 -7.743953612573434e-05
3.007848321364345 -4.9515526054779886e-05
3.0117546178855976 -6.034943160143435e-05
3.01566091440685 -6.767376211184863e-05
3.0195672109281024 -5.043106736858167e-05
3.0234735074493546 -1.5030136568245977e-05
3.0273798039706072 1.3962005035477228e-05
3.0312861004918594 -2.365148393987945e-06
3.035192397013112 -5.455100328068971e-05
3.0390986935343642 -9.544518196383611e-05
3.043004990055617 -7.301441977569239e-05
3.046911286576869 -3.1967650873579e-05
3.0508175830981217 -4.875257495994507e-05
3.054723879619374 -8.796826123445487e-05
3.0586301761406265 -0.00012260624093995574
3.0625364726618787 -0.0001329823758297093
3.0664427691831313 -0.00011741817349507897
3.0703490657043835 -0.00014183260852979323
3.074255362225636 -0.0001842526894026093
3.0781616587468883 -0.00020439459830624856
3.082067955268141 -0.00020454718852521553
3.085974251789393 -0.00017555504692149234
3.0898805483106457 -0.00017341878385595483
3.093786844831898 -0.00020439459830624856
3.09769314135315 -0.00022240024414435034
3.1015994378744027 -0.00022301060502021822
3.105505734395655 -0.00019310292210269323
3.1094120309169075 -0.00018760967421988252
3.1133183274381597 -0.0002201113908598459
3.1172246239594124 -0.00023048752574959943
3.1211309204806645 -0.00022514686808575572
3.125037217001917 -0.00019371328297856108
3.1289435135231694 -0.00018104829480430304
3.132849810044422 -0.00021202410925459677
3.136756106565674 -0.00022514686808575572
3.140662403086927 -0.00022331578545815216
3.144568699608179 -0.00018898298619058517
3.1484749961294316 -0.0001671625848783093
3.152381292650684 -0.00020164797436484323
3.1562875891719364 -0.00023064011596856643
3.1601938856931886 -0.0002516975661860075
3.1641001822144412 -0.00022590981918059054
3.1680064787356934 -0.0001842526894026093
3.171912775256946 -0.00016105897611963074
3.175819071778198 -8.293278400854505e-05
3.179725368299451 3.425650415808347e-05
3.183631664820703 0.000296406500343328
3.187537961341955 0.000727168688487068
3.191444257863208 0.0011426718547341114
3.19535055438446 0.0014924086366063937
3.1992568509057127 0.0017737850003814754
3.203163147426965 0.001999160753795682
3.2070694439482175 0.0020225070572976274
3.2109757404694697 0.0016651407644769972
3.2148820369907223 0.0010230411230640116
3.2187883335119745 0.0002718394750896467
3.222694630033227 -0.00021614404516670483
3.2266009265544793 -0.0002755016403448539
3.230507223075732 -0.00023445487144274052
3.234413519596984 -0.00021339742122529945
3.2383198161182367 -0.00018379491874570843
3.242226112639489 -0.00014854657816433967
3.2461324091607415 -6.1875333791104e-05
3.2500387056819937 -1.4419775692378118e-05
3.2539450022032463 -2.4795910582131685e-05
3.2578512987244985 -3.395132372014954e-05
3.261757595245751 -3.2578011749446866e-05
3.2656638917670033 -4.043640802624551e-06
3.269570188288256 -2.2125581750209812e-06
3.273476484809508 -2.937361715114061e-05
3.2773827813307603 -3.83764400701915e-05
3.281289077852013 -2.8458075837338827e-05
3.285195374373265 9.689478904402229e-06
3.2891016708945178 2.3270008392462045e-05
3.29300796741577 -6.027313649195086e-06
3.2969142639370226 -2.17441062027924e-05
3.3008205604582748 -9.994659342336156e-06
3.3047268569795274 3.1357289997711146e-05
3.3086331535007796 4.982070649271382e-05
3.312539450022032 2.4338139925230795e-05
3.3164457465432844 6.332494087129015e-06
3.320352043064537 1.0605020218204014e-05
3.324258339585789 5.3025101091020064e-05
3.328164636107042 8.23224231326772e-05
3.332070932628294 6.034943160143435e-05
3.3359772291495466 4.890516517891203e-05
3.339883525670799 5.11940184634165e-05
3.3437898221920515 8.40009155413138e-05
3.3476961187133036 0.00012718394750896466
3.3516024152345563 0.00011787594415197986
3.3555087117558084 0.00010292210269321736
3.359415008277061 0.00010383764400701916
3.3633213047983133 0.00013405050736247807
3.3672276013195654 0.0001804379339284352
3.371133897840818 0.00017647058823529413
3.3750401943620703 0.00016014343480582897
3.378946490883323 0.0001628900587472343
3.382852787404575 0.0001935606927595941
3.3867590839258277 0.00024025329976348517
3.39066538044708 0.00023933775844968338
3.3945716769683325 0.0002231631952391852
3.3984779734895847 0.0002272831311512932
3.4023842700108373 0.00026085297932402536
3.4062905665320895 0.00031578545815213246
3.410196863053342 0.00032616159304188605
3.4141031595745943 0.0003159380483710994
3.418009456095847 0.0003258564126039521
3.421915752617099 0.00036217288471808955
3.4258220491383518 0.0004149691004806592
3.429728345659604 0.0004271763179980163
3.4336346421808566 0.0004239719233997101
3.4375409387021088 0.00043602655069810024
3.4414472352233614 0.0004665445944914931
3.4453535317446136 0.0005292591744869154
3.449259828265866 0.0005509269855802244
3.4531661247871184 0.0005320057984283207
3.4570724213083706 0.0005358205539024948
3.460978717829623 0.0005637445639734494
3.4648850143508754 0.0006186770428015564
3.468791310872128 0.000650263218127718
3.47269760739338 0.0006386663614862287
3.476603903914633 0.0006324101625085832
3.480510200435885 0.0006443121995880065
3.4844164969571376 0.0006870374608987564
3.48832279347839 0.0007140459296559091
3.4922290899996424 0.0006920729381246662
3.4961353865208946 0.0006673533226520179
3.5000416830421472 0.0006543831540398261
3.5039479795633994 0.0006641489280537117
3.507854276084652 0.0006638437476157778
3.5117605726059042 0.0006084534981307698
3.515666869127157 0.0005405508506904708
3.519573165648409 0.0004869916838330663
3.5234794621696617 0.00045815213244831005
3.527385758690914 0.00042626077668421453
3.5312920552121665 0.00034782940413519495
3.5351983517334187 0.00026466773479819945
3.5391046482546713 0.00020149538414587626
3.5430109447759235 0.00016472114137483789
3.5469172412971757 0.00013664454108491648
3.5508235378184283 7.37773708705272e-05
3.5547298343396805 6.179903868162052e-06
3.558636130860933 -4.112306401159686e-05
3.5625424273821853 -5.180437933928435e-05
3.566448723903438 -4.6005951018539714e-05
3.57035502042469 -8.705271992065309e-05
3.5742613169459427 -0.0001381704432745861
3.578167613467195 -0.0001662470435645075
3.5820739099884475 -0.00016197451743343253
3.5859802065096997 -0.00013328755626764325
3.5898865030309524 -0.00014946211947814144
3.5937927995522045 -0.00018730449378194858
3.597699096073457 -0.00020759899290455483
3.6016053925947094 -0.0002013427939269093
3.605511689115962 -0.0001616693369954986
3.609417985637214 -0.00015754940108339056
3.613324282158467 -0.00018760967421988252
3.617230578679719 -0.00020531013962005036
3.6211368752009716 -0.00020317387655451285
3.625043171722224 -0.00016884107728694592
3.6289494682434764 -0.0001581597619592584
3.6328557647647286 -0.0001842526894026093
3.636762061285981 -0.00020317387655451285
3.6406683578072334 -0.0002034790569924468
3.6445746543284856 -0.0001697566186007477
3.6484809508497382 -0.0001522087434195468
3.6523872473709904 -0.00017555504692149234
3.656293543892243 -0.00019401846341649502
3.660199840413495 -0.00020027466239414056
3.664106136934748 -0.00017280842298008698
3.668012433456 -0.00014900434882124055
3.6719187299772527 -0.0001766231784542611
3.675825026498505 -0.0002013427939269093
3.6797313230197575 -0.000202563515678645
3.6836376195410097 -0.00017921721217669948
3.6875439160622623 -0.00015297169451438164
3.6914502125835145 -0.0001743343251697566
3.695356509104767 -0.00020698863202868695
3.6992628056260193 -0.00020973525597009233
3.703169102147272 -0.0001833371480888075
3.707075398668524 -0.00016304264896620127
3.7109816951897767 -0.0001863889524681468
3.714887991711029 -0.00021614404516670483
3.7187942882322815 -0.00022789349202716105
3.7227005847535337 -0.00020927748531319144
3.7266068812747863 -0.00017967498283360037
3.7305131777960385 -0.00019951171129930573
3.7344194743172907 -0.00023323414969100481
3.7383257708385433 -0.00024620431830319676
3.7422320673597955 -0.00022743572137026016
3.746138363881048 -0.00018654154268711375
3.7500446604023003 -0.00020180056458381018
3.753950956923553 -0.00023918516823071643
3.757857253444805 -0.00024940871290150303
3.7617635499660578 -0.0002422369726100557
3.76566984648731 -0.00020759899290455483
3.7695761430085626 -0.00020485236896314947
3.7734824395298148 -0.00023857480735484858
3.7773887360510674 -0.0002600900282291905
3.7812950325723196 -0.00025841153582055395
3.785201329093572 -0.00022301060502021822
3.7891076256148244 -0.00021660181582360571
3.793013922136077 -0.0002481879911497673
3.796920218657329 -0.0002652780956740673
3.800826515178582 -0.00026512550545510036
3.804732811699834 -0.00023537041275654232
3.8086391082210866 -0.00022453650720988787
3.812545404742339 -0.00025108720531013965
3.8164517012635915 -0.0002661936369878691
3.8203579977848436 -0.00026665140764476996
3.824264294306096 -0.00023949034866865035
3.8281705908273485 -0.0002268253604943923
3.8320768873486006 -0.0002552071412222476
3.8359831838698533 -0.00027367055771725037
3.8398894803911054 -0.00027336537727931637
3.843795776912358 -0.00024498359655146106
3.8477020734336103 -0.0002277409018081941
3.851608369954863 -0.00025749599450675207
3.855514666476115 -0.0002814526588845655
3.8594209629973677 -0.00028587777523460744
3.86332725951862 -0.000262531471732662
3.8672335560398725 -0.00023949034866865035
3.8711398525611247 -0.00026298924238956283
3.8750461490823773 -0.0002890821698329137
3.8789524456036295 -0.00029228656443121997
3.882858742124882 -0.0002655832761120012
3.8867650386461343 -0.00023537041275654232
3.890671335167387 -0.0002471198596169986
3.894577631688639 -0.00027367055771725037
3.8984839282098918 -0.00029228656443121997
3.902390224731144 -0.00027458609903105213
3.9062965212523966 -0.00023949034866865035
3.9102028177736488 -0.00025123979552910656
3.914109114294901 -0.0002759594110017548
3.9180154108161536 -0.000292133974212253
3.9219217073374057 -0.000283588921950103
3.9258280038586584 -0.00025108720531013965
3.9297343003799106 -0.00025963225757228965
3.933640596901163 -0.0002803845273517968
3.9375468934224154 -0.0002886243991760128
3.941453189943668 -0.00028374151216906997
3.94535948646492 -0.00024757763027389944
3.949265782986173 -0.0002448310063324941
3.953172079507425 -0.00027092393377584496
3.9570783760286776 -0.0002854200045777066
3.96098467254993 -0.0002854200045777066
3.9648909690711824 -0.00025490196078431374
3.9687972655924346 -0.0002501716639963378
3.9727035621136872 -0.00027946898603799496
3.9766098586349394 -0.0002983901731898985
3.980516155156192 -0.0002947280079346914
3.9844224516774442 -0.00025627527275501636
3.988328748198697 -0.0002405584802014191
3.992235044719949 -0.00026665140764476996
3.9961413412412017 -0.0002918287937743191
4.000047637762454 -0.00029610131990539406
4.0039539342837065 -0.00026298924238956283
4.007860230804958 -0.0002481879911497673
4.011766527326211 -0.0002767223620965896
4.0156728238474635 -0.0002983901731898985
4.019579120368716 -0.0002947280079346914
4.023485416889968 -0.00026207370107576107
4.0273917134112205 -0.00024269474326695659
4.031298009932473 -0.0002588693064774548
4.035204306453726 -0.00028587777523460744
4.0391106029749775 -0.0003026626993209735
4.04301689949623 -0.0002742809185931182
4.046923196017483 -0.00024162661173418785
4.050829492538735 -0.0002605477988860914
4.054735789059987 -0.00029167620355535214
4.05864208558124 -0.00030296787975890745
4.062548382102492 -0.0002841992828259709
4.066454678623745 -0.0002520027466239414
4.070360975144997 -0.00025810635538262
4.074267271666249 -0.00028938735027084764
4.078173568187502 -0.0003022049286640726
4.082079864708755 -0.0002861829556725414
4.085986161230006 -0.0002552071412222476
4.089892457751259 -0.00025612268253604945
4.093798754272512 -0.00028587777523460744
4.097705050793763 -0.00029488059815365835
4.101611347315016 -0.00027565423056382087
4.105517643836269 -0.00024956130312047
4.109423940357521 -0.0002501716639963378
4.113330236878773 -0.0002732127870603494
4.117236533400026 -0.00027962157625696193
4.121142829921278 -0.00025444419012741283
4.125049126442531 -0.00020653086137178606
4.128955422963783 -0.00018776226443884946
4.132861719485035 -0.0002115663385976959
4.136768016006288 -0.00022285801480125125
4.1406743125275405 -0.00019676508735790035
4.144580609048792 -0.00013923857480735487
4.148486905570045 -0.00011436636911573968
4.1523932020912975 -0.00014274814984359502
4.15629949861255 -0.00015770199130235753
4.160205795133802 -0.00015129320210574503
4.1641120916550545 -0.00013878080415045396
4.168018388176307 -0.00014229037918669414
4.17192468469756 -0.0001714351110093843
4.1758309812188115 -0.0001944762340733959
4.179737277740064 -0.0002022583352407111
4.183643574261317 -0.0001828793774319066
4.1875498707825685 -0.0001766231784542611
4.191456167303821 -0.00022072175173571375
4.195362463825074 -0.0002661936369878691
4.199268760346326 -0.00029228656443121997
4.203175056867578 -0.0002828259708552682
4.207081353388831 -0.0002669565880827039
4.210987649910083 -0.0002985427634088655
4.214893946431336 -0.0003282978561074235
4.218800242952588 -0.00033684290836957353
4.22270653947384 -0.00032448310063324943
4.226612835995093 -0.00029701686121919583
4.230519132516346 -0.00030937666895552
4.234425429037597 -0.0003334859235523003
4.23833172555885 -0.0003408102540627146
4.242238022080103 -0.0003316548409246967
4.246144318601355 -0.00030525673304341195
4.250050615122607 -0.0003156328679331655
4.25395691164386 -0.00033775844968337535
4.257863208165112 -0.0003412680247196155
4.261769504686365 -0.0003316548409246967
4.265675801207617 -0.0002956435492484932
4.269582097728869 -0.00030037384603646906
4.273488394250122 -0.00033073929961089494
4.277394690771374 -0.0003376058594644084
4.281300987292626 -0.0003278400854505226
4.285207283813879 -0.0002956435492484932
4.2891135803351315 -0.0003282978561074235
4.293019876856383 -0.00038261997405966274
4.296926173377636 -0.0003759060044251164
4.3008324698988885 -0.0003362325474937057
4.304738766420141 -0.0002013427939269093
4.308645062941393 -4.875257495994507e-05
4.3125513594626455 0.00012855725947966734
4.316457655983898 0.000497215228503853
4.320363952505151 0.0009870298313878082
4.3242702490264024 0.0014571602960250247
4.328176545547655 0.0017690547035934996
4.332082842068908 0.0019442282749675746
4.33598913859016 0.0020194552529182877
4.339895435111412 0.0017866025787747007
4.343801731632665 0.001212558175020981
4.347708028153917 0.00043724727244983595
4.35161432467517 -0.00019127183947508964
4.355520621196422 -0.0003795681696803235
4.359426917717674 -0.0003803311207751583
4.363333214238927 -0.00034538796063172353
4.367239510760179 -0.0002767223620965896
4.371145807281431 -0.0002841992828259709
4.375052103802684 -0.00028801403830014497
4.378958400323937 -0.00023643854428931105
4.382864696845188 -0.0001586175326161593
4.386770993366441 -0.00010444800488288701
4.390677289887694 -0.0001274891279468986
4.394583586408946 -0.00015678644998855573
4.398489882930198 -0.00016304264896620127
4.402396179451451 -0.000138628213931487
4.406302475972703 -0.00010444800488288701
4.410208772493956 -0.00012077515831235218
4.414115069015208 -0.0001444266422522316
4.41802136553646 -0.00014869916838330664
4.421927662057713 -0.0001194018463416495
4.425833958578965 -7.331960021362631e-05
4.429740255100217 -7.789730678263524e-05
4.43364655162147 -0.00010139620050354773
4.437552848142722 -0.00011253528648813612
4.441459144663975 -9.269855802243077e-05
4.445365441185227 -4.112306401159686e-05
4.449271737706479 -3.593499656672007e-05
4.453178034227732 -6.30960555428397e-05
4.457084330748984 -7.209887846189059e-05
4.460990627270236 -5.271992065308614e-05
4.464896923791489 -3.1280994888227663e-06
4.468803220312742 1.2588693064774549e-05
4.472709516833993 -8.773937590600443e-06
4.476615813355246 -1.884489204242008e-05
4.480522109876499 -4.501411459525444e-06
4.484428406397751 4.1428244449530785e-05
4.488334702919003 6.126497291523613e-05
4.492240999440256 4.081788357366293e-05
4.496147295961508 3.24254215304799e-05
4.500053592482761 4.402227817196918e-05
4.503959889004013 8.720531013962004e-05
4.507866185525265 0.00011741817349507897
4.511772482046518 0.00010444800488288701
4.515678778567771 0.00010154879072251468
4.519585075089022 0.0001155870908674754
4.523491371610275 0.00015785458152132447
4.5273976681315276 0.0001961547264820325
4.53130396465278 0.00018745708400091555
4.535210261174032 0.00018364232852674146
4.5391165576952845 0.00020561532005798427
4.543022854216537 0.0002552071412222476
4.546929150737789 0.0003009842069123369
4.5508354472590415 0.0002968642710002289
4.554741743780294 0.0002939650568398566
4.558648040301547 0.00031715877012283513
4.5625543368227985 0.000368886854352636
4.566460633344051 0.0004247348744945449
4.570366929865304 0.0004300755321583887
4.574273226386556 0.00042671854734111544
4.578179522907808 0.00044274052033264666
4.582085819429061 0.00048378728923476007
4.585992115950313 0.0005413138017853055
4.589898412471566 0.0005504692149233234
4.593804708992818 0.0005359731441214619
4.59771100551407 0.0005405508506904708
4.601617302035323 0.0005745784695201037
4.605523598556576 0.0006267643244068055
4.609429895077827 0.0006324101625085832
4.61333619159908 0.0006134889753566797
4.617242488120333 0.000607385366598001
4.621148784641585 0.0006159304188601511
4.625055081162837 0.0006479743648432136
4.62896137768409 0.0006394293125810635
4.632867674205342 0.0005867856870374609
4.636773970726594 0.0005419241626611734
4.640680267247847 0.0005120164797436484
4.644586563769099 0.0005031662470435645
4.648492860290352 0.000462729839017319
4.652399156811604 0.0003803311207751583
4.656305453332856 0.0003055619134813459
4.660211749854109 0.00024620431830319676
4.6641180463753615 0.00021599145494773786
4.668024342896613 0.00017219806210421913
4.671930639417866 9.254596780346381e-05
4.6758369359391185 2.525368123903258e-05
4.679743232460371 -1.8997482261387045e-05
4.683649528981623 -2.754253452353704e-05
4.6875558255028755 -4.5853360799572744e-05
4.691462122024128 -0.00010902571145189594
4.695368418545381 -0.00015632867933165485
4.6992747150666325 -0.0001752498664835584
4.703181011587885 -0.00016304264896620127
4.707087308109138 -0.0001535820553902495
4.71099360463039 -0.00019279774166475932
4.714899901151642 -0.0002268253604943923
4.718806197672895 -0.00023262378881513696
4.722712494194147 -0.00020836194399938965
4.7266187907154 -0.0001828793774319066
4.730525087236652 -0.00020759899290455483
4.734431383757904 -0.00023781185626001373
4.738337680279157 -0.0002471198596169986
4.742243976800409 -0.00022636758983749143
4.746150273321661 -0.00018867780575265126
4.750056569842914 -0.00019813839932860303
4.753962866364167 -0.00022545204852368963
4.757869162885418 -0.00023506523231860837
4.761775459406671 -0.00021599145494773786
4.765681755927924 -0.00017753871976806287
4.769588052449176 -0.0001847104600595102
4.773494348970428 -0.0002115663385976959
4.777400645491681 -0.00022240024414435034
4.781306942012933 -0.0002115663385976959
4.785213238534186 -0.0001743343251697566
4.789119535055438 -0.00017555504692149234
4.79302583157669 -0.00020439459830624856
4.796932128097943 -0.0002170595864805066
4.8008384246191955 -0.0002098878461890593
4.804744721140447 -0.00017708094911116198
4.8086510176617 -0.000176928358892195
4.8125573141829525 -0.00020393682764934768
4.816463610704205 -0.0002140077821011673
4.820369907225457 -0.00021034561684596018
4.8242762037467095 -0.0001799801632715343
4.828182500267962 -0.00017372396429388875
4.832088796789214 -0.00020744640268558788
4.8359950933104665 -0.0002272831311512932
4.839901389831719 -0.00022163729304951551
4.843807686352972 -0.00018898298619058517
4.8477139828742235 -0.0001804379339284352
4.851620279395476 -0.0002106507972838941
4.855526575916729 -0.00023216601815823608
4.859432872437981 -0.00023628595407034408
4.863339168959233 -0.00020500495918211641
4.867245465480486 -0.0001868467231250477
4.871151762001738 -0.00021965362020294498
4.875058058522991 -0.00024452582589456015
4.878964355044243 -0.00024498359655146106
4.882870651565495 -0.00021660181582360571
4.886776948086748 -0.00019310292210269323
4.890683244608001 -0.00021568627450980395
4.894589541129252 -0.00024574654764629585
4.898495837650505 -0.00025764858472571904
4.902402134171758 -0.00023537041275654232
4.90630843069301 -0.00020698863202868695
4.910214727214262 -0.0002201113908598459
4.914121023735515 -0.0002422369726100557
4.918027320256767 -0.00025352864881361106
4.921933616778019 -0.00023598077363241017
4.925839913299272 -0.00020653086137178606
4.929746209820524 -0.00022209506370641642
4.933652506341777 -0.00024681467917906464
4.937558802863029 -0.00025490196078431374
4.941465099384281 -0.00024254215304798962
4.945371395905534 -0.0002115663385976959
4.9492776924267865 -0.00022377355611505304
4.953183988948038 -0.00025261310749980924
4.957090285469291 -0.00025917448691538874
4.9609965819905435 -0.00024757763027389944
4.964902878511796 -0.00021339742122529945
4.968809175033048 -0.00021660181582360571
4.9727154715543005 -0.00024849317158770126
4.976621768075553 -0.0002611581597619593
4.980528064596806 -0.00025444419012741283
4.9844343611180575 -0.00021736476691844054
4.98834065763931 -0.0002106507972838941
4.992246954160563 -0.0002448310063324941
4.996153250681815 -0.00025917448691538874
5.000059547203067 -0.0002516975661860075
5.00396584372432 -0.00021477073319600213
5.007872140245572 -0.0002022583352407111
5.011778436766824 -0.00023689631494621194
5.015684733288077 -0.0002567330434119173
5.019591029809329 -0.0002552071412222476
5.023497326330582 -0.00022301060502021822
5.027403622851834 -0.00020042725261310753
5.031309919373086 -0.0002268253604943923
5.035216215894339 -0.0002507820248722057
5.039122512415592 -0.0002553597314412146
5.043028808936843 -0.00022911421377889678
5.046935105458096 -0.00020531013962005036
5.050841401979349 -0.0002256046387426566
5.054747698500601 -0.0002458991378652628
5.058653995021853 -0.0002486457618066682
5.062560291543106 -0.0002260624093995575
5.066466588064358 -0.00020073243305104144
5.070372884585611 -0.00021690699626153966
5.074279181106863 -0.00024040588998245214
5.078185477628115 -0.0002454413672083619
5.082091774149368 -0.00022514686808575572
5.0859980706706205 -0.00020042725261310753
5.089904367191872 -0.00021660181582360571
5.093810663713125 -0.0002439154650186923
5.0977169602343775 -0.0002491035324635691
5.101623256755629 -0.00022590981918059054
5.105529553276882 -0.00019462882429236288
5.1094358497981345 -0.00020561532005798427
5.113342146319387 -0.00023216601815823608
5.117248442840639 -0.00024177920195315482
5.1211547393618915 -0.0002225528343633173
5.125061035883144 -0.00018410009918364234
5.128967332404397 -0.00019172961013199055
5.1328736289256485 -0.0002256046387426566
5.136779925446901 -0.00023735408560311285
5.140686221968154 -0.0002246890974288548
5.144592518489406 -0.00018852521553368429
5.148498815010658 -0.0001859311818112459
5.152405111531911 -0.00021736476691844054
5.156311408053163 -0.00023155565728236822
5.160217704574416 -0.00022209506370641642
5.164124001095668 -0.00018364232852674143
5.16803029761692 -0.00017372396429388875
5.171936594138173 -0.00020698863202868695
5.175842890659426 -0.0002256046387426566
5.179749187180677 -0.00022102693217364766
5.18365548370193 -0.0001880674448767834
5.187561780223183 -0.00017158770122835127
5.191468076744434 -0.00019813839932860303
5.195374373265687 -0.00021782253757534142
5.19928066978694 -0.00021828030823224233
5.203186966308192 -0.00018959334706645305
5.207093262829444 -0.0001702143892576486
5.210999559350697 -0.00019417105363546197
5.214905855871949 -0.00021263447013046463
5.218812152393202 -0.00021461814297703516
5.222718448914454 -0.00018989852750438696
5.226624745435706 -0.00016746776531624321
5.230531041956959 -0.00019127183947508964
5.2344373384782115 -0.00021248187991149768
5.238343634999463 -0.00021461814297703516
5.242249931520716 -0.00018913557640955214
5.2461562280419685 -0.00015724422064545662
5.250062524563221 -0.00017647058823529413
5.253968821084473 -0.00020531013962005036
5.2578751176057255 -0.00021034561684596018
5.261781414126978 -0.00018654154268711375
5.265687710648231 -0.00015632867933165485
5.2695940071694825 -0.0001752498664835584
5.273500303690735 -0.00020500495918211641
5.277406600211988 -0.00021431296253910124
5.2813128967332394 -0.00019417105363546197
5.285219193254492 -0.00015495536736095217
5.289125489775745 -0.00016517891203173877
5.293031786296997 -0.00019554436560616464
5.296938082818249 -0.00020805676356145574
5.300844379339502 -0.00019584954604409858
5.304750675860754 -0.0001526665140764477
5.308656972382007 -0.00014824139772640573
5.312563268903259 -0.0001718928816662852
5.316469565424511 -0.0001747920958266575
5.320375861945764 -0.00014824139772640573
5.324282158467017 -8.888380254825666e-05
5.328188454988268 -7.286182955672542e-05
5.332094751509521 -9.285114824139774e-05
5.336001048030774 -9.193560692759596e-05
5.339907344552026 -7.37773708705272e-05
5.343813641073278 -2.5864042114900433e-05
5.347719937594531 -1.0910200656137941e-05
5.351626234115783 -4.020752269779508e-05
5.355532530637036 -5.394064240482185e-05
5.359438827158288 -6.904707408255131e-05
5.36334512367954 -6.858930342565043e-05
5.367251420200793 -6.080720225833524e-05
5.371157716722045 -7.97283894102388e-05
5.375064013243297 -0.00010048065918974595
5.37897030976455 -0.00010856794079499504
5.3828766062858024 -9.330891889829862e-05
5.386782902807054 -9.697108415350577e-05
5.390689199328307 -0.00014534218356603343
5.394595495849559 -0.00018516823071641108
5.398501792370812 -0.00020210574502174412
5.402408088892064 -0.00018318455786984055
5.406314385413316 -0.0001667048142214084
5.410220681934569 -0.0001985961699855039
5.414126978455822 -0.0002272831311512932
5.418033274977073 -0.00023537041275654232
5.421939571498326 -0.00021385519188220033
5.425845868019579 -0.00018455786984054322
5.429752164540831 -0.00020500495918211641
5.433658461062083 -0.00023537041275654232
5.437564757583336 -0.00024254215304798962
5.441471054104588 -0.00021980621042191195
5.445377350625841 -0.00018699931334401467
5.449283647147093 -0.00019722285801480126
5.453189943668345 -0.00022285801480125125
5.457096240189598 -0.000236743724727245
5.46100253671085 -0.00022102693217364766
5.464908833232102 -0.0001847104600595102
5.468815129753355 -0.00018944075684748608
5.472721426274608 -0.0002170595864805066
5.476627722795859 -0.00023231860837720302
5.480534019317112 -0.00022423132677195393
5.4844403158383646 -0.00021248187991149768
5.488346612359617 -0.0002265201800564584
5.492252908880869 -0.00024116884107728697
5.4961592054021216 -0.00021599145494773786
5.500065501923374 -0.000112993057145037
5.503971798444627 3.3798733501182574e-05
5.5078780949658785 0.00023140306706340125
5.511784391487131 0.0005745784695201037
5.515690688008384 0.0010021362630655375
5.519596984529636 0.001410009918364233
5.523503281050888 0.0017618829633020523
5.527409577572141 0.0020093842984664685
5.531315874093393 0.002056229495689326
5.535222170614646 0.001789349202716106
5.539128467135898 0.0012407873655298695
5.54303476365715 0.0005358205539024948
5.546941060178403 -6.950484473945221e-05
5.550847356699655 -0.00030251010910200654
5.554753653220907 -0.00029365987640192265
5.55865994974216 -0.0002489509422446021
5.562566246263413 -0.000168535896849012
5.566472542784664 -0.00011711299305714503
5.570378839305917 -0.0001036850537880522
5.57428513582717 -7.16411078049897e-05
5.578191432348422 -4.432745860990311e-05
5.582097728869674 -1.304646372167544e-05
5.586004025390927 1.0299839780270084e-05
5.589910321912179 -1.0757610437170978e-05
5.593816618433432 -3.883421072709239e-05
5.597722914954684 -4.631113145647364e-05
5.601629211475936 -2.1133745326924547e-05
5.605535507997189 1.304646372167544e-05
5.6094418045184415 6.790264744029908e-06
5.613348101039693 -1.0452429999237049e-05
5.617254397560946 -1.4572365911345083e-05
5.6211606940821985 4.8065918974593735e-06
5.625066990603451 4.310673685816739e-05
5.628973287124703 4.493781948577096e-05
5.6328795836459555 2.60166323338674e-05
5.636785880167208 2.1438925764858474e-05
5.64069217668846 4.127565423056382e-05
5.6445984732097125 8.415350576028077e-05
5.648504769730965 8.78156710154879e-05
5.652411066252218 6.614785992217898e-05
5.6563173627734695 6.599526970321203e-05
5.660223659294722 8.415350576028077e-05
5.664129955815975 0.00012138551918822004
5.668036252337227 0.0001314564736400397
5.671942548858479 0.0001134508278019379
5.675848845379732 0.00010978866254673075
5.679755141900984 0.00012947280079346916
5.683661438422237 0.00017601281757839325
5.687567734943489 0.0001920347905699245
5.691474031464741 0.0001718928816662852
5.695380327985994 0.00016700999465934233
5.699286624507247 0.00018181124589913787
5.703192921028498 0.00023048752574959946
5.707099217549751 0.0002632944228274968
5.711005514071004 0.0002483405813687343
5.714911810592256 0.00024147402151522088
5.718818107113508 0.00025841153582055395
5.722724403634761 0.00030861371786068513
5.726630700156013 0.00034645609216449227
5.730536996677265 0.0003374532692454414
5.734443293198518 0.0003342488746471351
5.73834958971977 0.0003487449454489967
5.742255886241023 0.00039513237201495386
5.746162182762275 0.000445944914930953
5.750068479283527 0.00044945448996719313
5.75397477580478 0.00044853894865339136
5.7578810723260325 0.0004665445944914931
5.761787368847284 0.0005130846112764171
5.765693665368537 0.000565117875944152
5.7695999618897895 0.0005747310597390707
5.773506258411042 0.0005791561760891127
5.777412554932294 0.0005912108033875029
5.7813188514535465 0.0006253910124361028
5.785225147974799 0.0006765087357900359
5.789131444496052 0.0006826123445487144
5.7930377410173035 0.0006755931944762341
5.796944037538556 0.0006862745098039216
5.800850334059809 0.0007174029144731823
5.804756630581061 0.0007640955214770733
5.808662927102313 0.000765011062790875
5.812569223623566 0.0007430380712596323
5.816475520144818 0.0007375448233768216
5.82038181666607 0.000748836499580377
5.824288113187323 0.000774166475928893
5.828194409708575 0.0007515831235217822
5.832100706229828 0.0006940566109712368
5.83600700275108 0.000646601052872511
5.839913299272332 0.0006133363851377128
5.843819595793585 0.00060341802090486
5.847725892314838 0.0005558098725871672
5.851632188836089 0.00046791790646219576
5.855538485357342 0.0003923857480735485
5.859444781878595 0.00033714808880750747
5.863351078399847 0.00031578545815213246
5.867257374921099 0.0002732127870603494
5.871163671442352 0.0001892881666285191
5.875069967963604 0.00011909666590371558
5.878976264484857 7.682917524986649e-05
5.882882561006109 7.270923933775846e-05
5.886788857527361 5.897611963073167e-05
5.890695154048614 5.722133211261159e-06
5.8946014505698665 -4.020752269779508e-05
5.898507747091118 -6.30960555428397e-05
5.902414043612371 -5.271992065308614e-05
5.9063203401336235 -4.829480430304418e-05
5.910226636654875 -7.759212634470131e-05
5.914132933176128 -0.00010215915159838254
5.9180392296973805 -0.00011360341802090487
5.921945526218633 -8.949416342412451e-05
5.925851822739885 -6.584267948424506e-05
5.9297581192611375 -9.224078736552988e-05
5.93366441578239 -0.00011253528648813612
5.937570712303643 -0.00011314564736400397
5.9414770088248945 -9.056229495689327e-05
5.945383305346147 -6.340123598077363e-05
5.9492896018674 -8.461127641718166e-05
5.953195898388652 -0.00011116197451743343
5.957102194909904 -0.00011665522240024415
5.961008491431157 -9.42244602121004e-05
5.964914787952409 -5.9586480506599525e-05
5.968821084473662 -7.759212634470131e-05
5.972727380994914 -0.00010627908751049057
5.976633677516166 -0.0001108567940794995
5.980539974037419 -9.651331349660487e-05
5.984446270558672 -5.897611963073167e-05
5.988352567079923 -6.340123598077363e-05
5.992258863601176 -9.864957656214236e-05
5.996165160122429 -0.000112993057145037
6.000071456643681 -0.00010185397116044861
6.003977753164933 -6.35538261997406e-05
6.007884049686186 -6.30960555428397e-05
6.011790346207438 -0.00010002288853284505
6.01569664272869 -0.00011833371480888075
6.019602939249943 -0.00011528191042954146
6.023509235771195 -8.155947203784238e-05
6.027415532292448 -6.935225452048524e-05
6.0313218288137 -9.895475700007629e-05
6.035228125334952 -0.00011848630502784771
6.039134421856205 -0.00011833371480888075
6.0430407183774575 -9.056229495689327e-05
6.046947014898709 -8.06439307240406e-05
6.050853311419962 -0.00010795757991912719
6.0547596079412145 -0.00012703135728999772
6.058665904462467 -0.00013344014648661022
6.062572200983719 -0.0001113145647364004
6.0664784975049715 -9.98702983138781e-05
6.070384794026224 -0.00012611581597619592
6.074291090547477 -0.00014274814984359502
6.0781973870687285 -0.0001467154955367361
6.082103683589981 -0.00012306401159685663
6.086009980111234 -0.00010444800488288701
6.089916276632486 -0.0001314564736400397
6.093822573153738 -0.00015297169451438164
6.097728869674991 -0.00015709163042648968
6.101635166196243 -0.00013344014648661022
6.105541462717495 -0.00010643167772945754
6.109447759238748 -0.00013160906385900666
6.11335405576 -0.00016075379568169682
6.117260352281253 -0.00016578927290760662
6.121166648802505 -0.0001454947737850004
6.125072945323757 -0.00011268787670710307
6.12897924184501 -0.00012428473334859236
6.132885538366263 -0.00015678644998855573
6.136791834887514 -0.00017158770122835127
6.140698131408767 -0.00015205615320057982
6.14460442793002 -0.00011451895933470665
6.148510724451272 -0.00012245365072098877
6.152417020972524 -0.0001552605477988861
6.156323317493777 -0.00017296101319905395
6.160229614015029 -0.0001612115663385977
6.164135910536282 -0.00012397955291065842
6.168042207057534 -0.00012504768444342718
6.171948503578786 -0.00015434500648508432
6.175854800100039 -0.0001702143892576486
6.1797610966212915 -0.00016533150225070574
6.183667393142543 -0.00013405050736247807
6.187573689663796 -0.00013099870298313878
6.1914799861850485 -0.0001581597619592584
6.1953862827063 -0.00017372396429388875
6.199292579227553 -0.0001705195696955825
6.2031988757488055 -0.00013496604867627984
6.207105172270058 -0.00012336919203479057
6.21101146879131 -0.00015434500648508432
6.2149177653125625 -0.00017006179903868163
6.218824061833815 -0.0001638056000610361
6.222730358355068 -0.00013450827801937896
6.2266366548763195 -0.00012306401159685663
6.230542951397572 -0.00014991989013504235
6.234449247918825 -0.00016700999465934233
6.238355544440077 -0.00016563668268863965
6.242261840961329 -0.00013344014648661022
6.246168137482582 -0.00011223010605020219
6.250074434003834 -0.00014274814984359502
6.253980730525087 -0.00016609445334554054
6.257887027046339 -0.00016395819028000306
6.261793323567591 -0.00013679713130388343
6.265699620088844 -0.0001113145647364004
6.269605916610097 -0.00013328755626764325
6.273512213131348 -0.00016197451743343253
6.277418509652601 -0.0001705195696955825
6.281324806173854 -0.00014595254444190129
6.285231102695105 -0.00011451895933470665
6.289137399216358 -0.00013191424429694057
6.293043695737611 -0.00015907530327306018
6.296949992258863 -0.0001680781261921111
6.300856288780115 -0.00014854657816433967
6.304762585301368 -0.00011650263218127718
6.30866888182262 -0.00012733653772793163
6.312575178343873 -0.0001526665140764477
6.316481474865125 -0.00016884107728694592
6.320387771386377 -0.0001595330739299611
6.32429406790763 -0.00012306401159685663
6.3282003644288825 -0.00012825207904173342
6.332106660950134 -0.00015495536736095217
6.336012957471387 -0.00016655222400244145
6.3399192539926394 -0.00015846494239719233
6.343825550513892 -0.00012443732356755933
6.347731847035144 -0.00012733653772793163
6.351638143556396 -0.00015587090867475394
6.355544440077649 -0.0001671625848783093
6.359450736598902 -0.00015938048371099412
6.363357033120153 -0.00012550545510032807
6.367263329641406 -0.00012428473334859236
6.371169626162659 -0.00015388723582818344
6.37507592268391 -0.00016472114137483789
6.378982219205163 -0.00015754940108339056
6.382888515726416 -0.00012352178225375754
6.386794812247668 -0.00011665522240024415
6.39070110876892 -0.00014778362706950485
6.394607405290173 -0.00016609445334554054
6.398513701811425 -0.00016472114137483789
6.402419998332678 -0.0001265735866330968
6.40632629485393 -0.00010811017013809416
6.410232591375182 -0.00014091706721599146
6.414138887896435 -0.00016563668268863965
6.418045184417688 -0.00016746776531624321
6.421951480938939 -0.00013405050736247807
6.425857777460192 -0.00010841535057602808
6.429764073981445 -0.0001314564736400397
6.433670370502697 -0.0001552605477988861
6.437576667023949 -0.00016395819028000306
6.441482963545202 -0.00014015411612115664
6.445389260066454 -0.00011039902342259862
6.449295556587707 -0.0001277943083848325
6.4532018531089586 -0.00015434500648508432
6.457108149630211 -0.0001633478294041352
6.461014446151464 -0.00014183260852979323
6.4649207426727155 -0.0001117723353933013
6.468827039193968 -0.00012550545510032807
6.472733335715221 -0.00015083543144884411
6.476639632236473 -0.00016044861524376288
6.480545928757725 -0.00014366369115739681
6.484452225278978 -0.00011314564736400397
6.48835852180023 -0.00012260624093995574
6.492264818321483 -0.00014686808575570308
6.496171114842735 -0.0001552605477988861
6.500077411363987 -0.0001424429694056611
6.50398370788524 -0.00011161974517433434
6.507890004406493 -0.00011848630502784771
6.511796300927744 -0.00015007248035400932
6.515702597448997 -0.0001621271076523995
6.51960889397025 -0.00014579995422293432
6.523515190491502 -0.00010124361028458076
6.527421487012754 -9.224078736552988e-05
6.531327783534007 -0.00011253528648813612
6.535234080055259 -0.00010673685816739147
6.539140376576512 -7.97283894102388e-05
6.543046673097764 -3.1967650873579e-05
6.546952969619016 -1.121538109407187e-05
6.550859266140269 -3.105210955977722e-05
6.554765562661521 -3.7918669413290606e-05
6.558671859182773 -2.5864042114900433e-05
6.562578155704026 1.1673151750972763e-05
6.5664844522252785 3.1357289997711146e-05
6.57039074874653 -8.163576714732586e-06
6.574297045267783 -5.8213168535896854e-05
6.5782033417890355 -7.759212634470131e-05
6.582109638310288 -4.386968795300221e-05
6.58601593483154 -1.6403448538948654e-05
6.5899222313527925 -4.676890211337453e-05
6.593828527874045 -8.201724269474327e-05
6.597734824395298 -0.00010597390707255664
6.6016411209165495 -0.00010643167772945754
6.605547417437802 -0.0001036850537880522
6.609453713959055 -0.00014061188677805752
6.613360010480307 -0.00017387655451285572
6.617266307001559 -0.00018501564049744413
6.621172603522812 -0.0001702143892576486
6.625078900044064 -0.00015037766079194323
6.628985196565317 -0.00017326619363698786
6.632891493086569 -0.0002022583352407111
6.636797789607821 -0.0002106507972838941
6.640704086129074 -0.00019005111772335393
6.644610382650326 -0.00016029602502479594
6.648516679171578 -0.0001799801632715343
6.652422975692831 -0.00021385519188220033
6.656329272214084 -0.0002246890974288548
6.660235568735335 -0.00020714122224765394
6.664141865256588 -0.00017006179903868163
6.668048161777841 -0.00017921721217669948
6.671954458299093 -0.0002094300755321584
6.675860754820345 -0.00021309224078736554
6.679767051341598 -0.0001970702677958343
6.68367334786285 -0.00015800717174029144
6.687579644384103 -0.000159838254367895
6.691485940905355 -0.00019508659494926376
6.695392237426607 -0.0002170595864805066
6.69929853394786 -0.00023399710078583964
6.7032048304691125 -0.0002022583352407111
6.707111126990364 -0.000176928358892195
6.711017423511617 -0.00016044861524376288
6.7149237200328695 -7.667658503089952e-05
6.718830016554122 4.3564507515068286e-05
6.722736313075374 0.00029930571450370033
6.7266426095966265 0.000701228351262684
6.730548906117879 0.0011016250858319984
6.734455202639131 0.001460364690623331
6.7383614991603835 0.0017574578469520103
6.742267795681636 0.0020035858701457237
6.746174092202889 0.0020379186694132905
6.7500803887241405 0.0017006942854962998
6.753986685245393 0.001093080033569848
6.757892981766646 0.00035469596398870833
6.761799278287898 -0.00015800717174029144
6.76570557480915 -0.0002643625543602655
6.769611871330403 -0.00024361028458075838
6.773518167851655 -0.00021126115815976198
6.777424464372908 -0.00016700999465934233
6.78133076089416 -0.000112993057145037
6.785237057415412 -3.5324635690852214e-05
6.789143353936665 -8.31616693369955e-06
6.793049650457918 -1.3504234378576334e-05
6.796955946979169 -1.4419775692378118e-05
6.800862243500422 2.5177386129549097e-06
6.804768540021675 2.8763256275272758e-05
6.808674836542927 7.553215838864729e-06
6.812581133064179 -2.021820401312276e-05
6.816487429585432 -2.2049286640726327e-05
6.820393726106684 4.8065918974593735e-06
6.824300022627936 4.4785229266804e-05
6.828206319149189 3.471427481498436e-05
6.832112615670441 1.0299839780270084e-05
6.836018912191694 3.891050583657588e-06
6.839925208712946 2.418554970626383e-05
6.843831505234198 7.194628824292362e-05
6.847737801755451 7.37773708705272e-05
6.8516440982767035 4.798962386511025e-05
6.855550394797955 4.310673685816739e-05
6.859456691319208 6.157015335317007e-05
6.8633629878404605 0.00010444800488288701
6.867269284361713 0.00011375600823987182
6.871175580882965 9.086747539482719e-05
6.8750818774042175 8.216983291371023e-05
6.87898817392547 9.620813305867094e-05
6.882894470446723 0.00014000152590218967
6.8868007669679745 0.00015785458152132447
6.890707063489227 0.0001407644769970245
6.89461336001048 0.00013328755626764325
6.898519656531732 0.00014381628137636376
6.902425953052984 0.00018532082093537805
6.906332249574237 0.00020607309071488518
6.910238546095489 0.00018745708400091555
6.914144842616741 0.0001863889524681468
6.918051139137994 0.00020561532005798427
6.921957435659246 0.00024742504005493247
6.925863732180499 0.0002748912794689861
6.929770028701751 0.0002614633401998932
6.933676325223003 0.00025963225757228965
6.937582621744256 0.00027748531319142446
6.941488918265509 0.0003194476234073396
6.94539521478676 0.000360494392309453
6.949301511308013 0.00035683222705424586
6.953207807829266 0.0003495078965438315
6.957114104350518 0.000368886854352636
6.96102040087177 0.00042168307011520564
6.964926697393023 0.0004694438086518654
6.968832993914275 0.0004694438086518654
6.972739290435528 0.0004674601358052949
6.97664558695678 0.00048180361638818956
6.980551883478032 0.0005239185168230717
6.984458179999285 0.0005803768978408485
6.9883644765205375 0.0005889219501029984
6.992270773041789 0.0005812924391546502
6.996177069563042 0.0005931944762340735
7.0000833660842945 0.000628747997253376
7.003989662605546 0.00068032349126421
7.007895959126799 0.0006922255283436331
7.0118022556480515 0.0006821545738918135
7.015708552169304 0.0006867322804608224
7.019614848690556 0.0007149614709697109
7.0235211452118085 0.0007601281757839322
7.027427441733061 0.0007624170290684367
7.031333738254314 0.0007381551842526895
7.0352400347755655 0.0007213702601663233
7.039146331296818 0.0007119096665903716
7.043052627818071 0.0007257953765163653
7.046958924339323 0.000701533531700618
7.050865220860575 0.0006368352788586251
7.054771517381828 0.0005844968337529564
7.05867781390308 0.0005419241626611734
7.062584110424333 0.0005216296635385672
7.066490406945585 0.0004699015793087663
7.070396703466837 0.00037926298924238956
7.07430299998809 0.0003118181124589914
7.078209296509343 0.00025917448691538874
7.082115593030594 0.00023567559319447623
7.086021889551847 0.00020073243305104144
7.0899281860731 0.0001160448615243763
7.093834482594351 5.027847714961471e-05
7.097740779115604 1.9150072480354012e-05
7.101647075636857 1.7166399633783478e-05
7.105553372158109 9.231708247501335e-06
7.109459668679361 -4.280155642023346e-05
7.113365965200614 -9.04097047379263e-05
7.117272261721866 -0.00011024643320363165
7.121178558243119 -9.285114824139774e-05
7.125084854764371 -7.530327306019684e-05
7.128991151285623 -0.00010597390707255664
7.132897447806876 -0.00013969634546425575
7.1368037443281285 -0.0001522087434195468
7.14071004084938 -0.00013206683451590754
7.144616337370633 -0.00010002288853284505
7.1485226338918855 -0.00011482413977264058
7.152428930413138 -0.00014351110093842984
7.15633522693439 -0.00014900434882124055
7.1602415234556425 -0.00012977798123140307
7.164147819976895 -0.00010231174181734951
7.168054116498148 -0.00011116197451743343
7.1719604130193995 -0.00013832303349355307
7.175866709540652 -0.00015388723582818344
7.179773006061905 -0.00014015411612115664
7.1836793025831565 -0.00010856794079499504
7.187585599104409 -0.00011665522240024415
7.191491895625662 -0.00014396887159533073
7.195398192146914 -0.00015251392385748076
7.199304488668166 -0.0001390859845883879
7.203210785189419 -0.00010765239948119326
7.207117081710671 -0.00011039902342259862
7.211023378231924 -0.00014106965743495843
7.214929674753176 -0.00015754940108339056
7.218835971274428 -0.00014915693904020752
7.222742267795681 -0.00011482413977264058
7.226648564316934 -0.00011116197451743343
7.230554860838185 -0.00014488441290913255
7.234461157359438 -0.00016395819028000306
7.238367453880691 -0.00015587090867475394
7.242273750401943 -0.000121538109407187
7.246180046923195 -0.00011436636911573968
7.250086343444448 -0.0001531242847333486
7.2539926399657 -0.00018226901655603875
7.257898936486953 -0.0001799801632715343
7.261805233008205 -0.00014625772487983523
7.265711529529457 -0.00012825207904173342
7.26961782605071 -0.00015663385976958876
7.273524122571962 -0.00018944075684748608
7.277430419093214 -0.00020042725261310753
7.281336715614467 -0.00017250324254215304
7.2852430121357195 -0.00014732585641260396
7.289149308656971 -0.00017067215991454948
7.293055605178224 -0.00019951171129930573
7.2969619016994764 -0.0002089723048752575
7.300868198220729 -0.00018654154268711375
7.304774494741981 -0.00016197451743343253
7.3086807912632334 -0.0001828793774319066
7.312587087784486 -0.0002101930266269932
7.316493384305739 -0.00021889066910811019
7.32039968082699 -0.00020073243305104144
7.324305977348243 -0.0001799801632715343
7.328212273869496 -0.00020485236896314947
7.332118570390748 -0.00022423132677195393
7.336024866912 -0.00022499427786678875
7.339931163433253 -0.00021614404516670483
7.343837459954505 -0.00018501564049744413
7.347743756475758 -0.00019462882429236288
7.35165005299701 -0.00022514686808575572
7.355556349518262 -0.00023140306706340125
7.359462646039515 -0.00022148470283054854
7.363368942560768 -0.00018898298619058517
7.367275239082019 -0.00019462882429236288
7.371181535603272 -0.00023445487144274052
7.375087832124525 -0.0002466620889600977
7.378994128645776 -0.00023689631494621194
7.382900425167029 -0.00020759899290455483
7.386806721688282 -0.00020561532005798427
7.390713018209534 -0.00024208438239108873
7.394619314730786 -0.000262531471732662
7.398525611252039 -0.00024940871290150303
7.402431907773291 -0.000211108567940795
7.406338204294544 -0.00020439459830624856
7.4102445008157956 -0.00023216601815823608
7.414150797337048 -0.0002501716639963378
7.418057093858301 -0.0002552071412222476
7.421963390379553 -0.00022636758983749143
7.425869686900805 -0.00020622568093385212
7.429775983422058 -0.00022957198443579767
7.43368227994331 -0.00025612268253604945
7.437588576464563 -0.0002639047837033646
7.441494872985815 -0.0002310978866254673
7.445401169507067 -0.0002094300755321584
7.44930746602832 -0.00023155565728236822
7.453213762549573 -0.0002507820248722057
7.457120059070824 -0.0002607003891050584
7.461026355592077 -0.00023857480735484858
7.46493265211333 -0.00021461814297703516
7.468838948634581 -0.00023506523231860837
7.472745245155834 -0.00025612268253604945
7.476651541677087 -0.0002607003891050584
7.480557838198339 -0.00023872739757381552
7.484464134719591 -0.00021522850385290304
7.488370431240844 -0.00023643854428931105
7.492276727762096 -0.0002619211108567941
7.496183024283349 -0.000266498817425803
7.500089320804601 -0.0002434576943617914
7.503995617325853 -0.0002175173571374075
7.507901913847106 -0.00023186083772030214
7.5118082103683586 -0.00025566491187914854
7.51571450688961 -0.0002674143587396048
7.519620803410863 -0.0002489509422446021
7.5235270999321155 -0.00021477073319600213
7.527433396453368 -0.00022911421377889678
7.53133969297462 -0.00026283665217059586
7.5352459894958725 -0.00027962157625696193
7.539152286017125 -0.0002686350804913405
7.543058582538378 -0.00022865644312199587
7.5469648790596295 -0.00022209506370641642
7.550871175580882 -0.00024940871290150303
7.554777472102135 -0.00026970321202410925
7.5586837686233865 -0.00026283665217059586
7.562590065144639 -0.0002277409018081941
7.566496361665892 -0.00022163729304951551
7.570402658187144 -0.00025062943465323874
7.574308954708396 -0.00027290760662241546
7.578215251229649 -0.0002675669489585718
7.582121547750901 -0.00023598077363241017
7.586027844272154 -0.00022926680399786372
7.589934140793406 -0.00025108720531013965
7.593840437314658 -0.0002715342946517128
7.597746733835911 -0.00027504386968795304
7.601653030357164 -0.0002382696269169146
7.605559326878415 -0.00022285801480125125
7.609465623399668 -0.0002521553368429084
7.613371919920921 -0.00027092393377584496
7.617278216442173 -0.00027336537727931637
7.621184512963425 -0.0002471198596169986
7.625090809484678 -0.00022865644312199587
7.62899710600593 -0.0002529182879377432
7.632903402527183 -0.0002675669489585718
7.636809699048435 -0.0002683299000534066
7.640715995569687 -0.0002466620889600977
7.64462229209094 -0.00022117952239261463
7.648528588612192 -0.00024315251392385747
7.652434885133444 -0.00027138170443274587
7.656341181654697 -0.0002785534447241932
7.6602474781759495 -0.0002552071412222476
7.664153774697201 -0.00022407873655298696
7.668060071218454 -0.00024177920195315482
7.6719663677397065 -0.00027107652399481193
7.675872664260959 -0.0002809948882276646
7.679778960782211 -0.0002607003891050584
7.6836852573034635 -0.00022285801480125125
7.687591553824716 -0.0002310978866254673
7.691497850345969 -0.000262531471732662
7.6954041468672205 -0.00028084229800869764
7.699310443388473 -0.00026710917830167087
7.703216739909726 -0.0002277409018081941
7.707123036430978 -0.00023140306706340125
7.71102933295223 -0.0002600900282291905
7.714935629473483 -0.00027565423056382087
7.718841925994735 -0.0002661936369878691
7.722748222515988 -0.00022514686808575572
7.72665451903724 -0.00021522850385290304
7.730560815558492 -0.00023094529640650037
7.734467112079745 -0.00022972457465476464
7.738373408600997 -0.00020531013962005036
7.742279705122249 -0.00015754940108339056
7.746186001643502 -0.0001432059205004959
7.750092298164755 -0.00015617608911268788
7.753998594686006 -0.00015754940108339056
7.757904891207259 -0.00014106965743495843
7.761811187728512 -9.269855802243077e-05
7.765717484249764 -7.97283894102388e-05
7.769623780771016 -0.00010627908751049057
7.773530077292269 -0.0001284046692607004
7.777436373813521 -0.00015938048371099412
7.781342670334774 -0.00013771267261768522
7.785248966856026 -0.0001074998092622263
7.789155263377278 -0.00014641031509880217
7.793061559898531 -0.00017738612954909592
7.7969678564197835 -0.00018944075684748608
7.800874152941035 -0.00018318455786984055
7.804780449462288 -0.0001804379339284352
7.8086867459835405 -0.0002358281834134432
7.812593042504793 -0.00028130006866559855
7.816499339026045 -0.0002913710231174182
7.8204056355472975 -0.00027565423056382087
7.82431193206855 -0.00025307087815671015
7.828218228589802 -0.0002790112153810941
7.8321245251110545 -0.0003096818493934539
7.836030821632307 -0.00031792172121766993
7.83993711815356 -0.0003002212558175021
7.8438434146748115 -0.00026787212939650566
7.847749711196064 -0.0002828259708552682
7.851656007717317 -0.0003116655222400244
7.855562304238569 -0.00031792172121766993
7.859468600759821 -0.000304646372167544
7.863374897281074 -0.00027458609903105213
7.867281193802326 -0.0002759594110017548
7.871187490323579 -0.0003022049286640726
7.875093786844831 -0.00031273365377279316
7.879000083366083 -0.0002980849927519646
7.882906379887336 -0.0002718394750896467
7.886812676408589 -0.00027229724574654764
7.89071897292984 -0.0002980849927519646
7.894625269451093 -0.00031364919508659493
7.898531565972346 -0.00031456473640039675
7.902437862493598 -0.0003061722743572137
7.90634415901485 -0.0003075455863279164
7.910250455536103 -0.0003173113603418021
7.914156752057355 -0.0002611581597619593
7.918063048578607 -0.00012886243991760128
7.92196934509986 5.7602807660028993e-05
7.925875641621112 0.00036263065537499046
7.929781938142365 0.0007817959868772412
7.933688234663617 0.0012236972610055697
7.937594531184869 0.0015903715571831845
7.941500827706122 0.0018636606393530176
7.9454071242273745 0.002045395590142672
7.949313420748626 0.0019654383154039824
7.953219717269879 0.0015194171053635461
7.9571260137911315 0.0007988860914015412
7.961032310312384 8.78156710154879e-05
7.964938606833636 -0.0002639047837033646
7.9688449033548885 -0.0003278400854505226
7.972751199876141 -0.00034676127260242616
7.976657496397394 -0.0003202105745021744
7.9805637929186455 -0.0002593270771343557
7.984470089439898 -0.00022056916151674678
7.988376385961151 -0.00019081406881818876
7.992282682482403 -0.0001544975967040513
7.996188979003655 -0.00013099870298313878
8.000095275524908 -0.0001036850537880522
8.00400157204616 -7.469291218432899e-05
8.007907868567413 -9.285114824139774e-05
8.011814165088666 -0.00012031738765545128
8.015720461609916 -0.00012123292896925308
8.019626758131169 -0.00010093842984664683
8.023533054652422 -6.996261539635309e-05
8.027439351173674 -7.331960021362631e-05
8.031345647694927 -9.086747539482719e-05
8.03525194421618 -9.605554283970399e-05
8.039158240737432 -7.438773174639506e-05
8.043064537258685 -3.1967650873579e-05
8.046970833779936 -3.685053788052186e-05
8.050877130301188 -6.1875333791104e-05
8.054783426822441 -6.385900663767453e-05
8.058689723343694 -4.1886015106431675e-05
8.062596019864946 5.264362554360266e-06
8.066502316386199 1.3809414816510261e-05
8.070408612907451 -1.1367971313038835e-05
8.074314909428704 -1.731898985275044e-05
8.078221205949955 3.8147554741741084e-07
8.082127502471208 4.4174868390936146e-05
8.08603379899246 6.294346532387273e-05
8.089940095513713 4.081788357366293e-05
8.093846392034965 2.7237354085603113e-05
8.097752688556218 4.280155642023346e-05
8.10165898507747 8.87312123292897e-05
8.105565281598722 0.00011100938429846647
8.109471578119974 9.117265583276112e-05
8.113377874641227 7.789730678263524e-05
8.11728417116248 9.224078736552988e-05
8.121190467683732 0.00014351110093842984
8.125096764204985 0.00017769130998702984
8.129003060726237 0.00016227969787136644
8.13290935724749 0.00015281910429541467
8.13681565376874 0.00016609445334554054
8.140721950289993 0.00020912489509422447
8.144628246811246 0.0002483405813687343
8.148534543332499 0.0002483405813687343
8.152440839853751 0.0002478828107118334
8.156347136375004 0.00025902189669642177
8.160253432896257 0.00030296787975890745
8.16415972941751 0.00035942626077668425
8.16806602593876 0.0003661402304112306
8.171972322460013 0.00036400396734569314
8.175878618981265 0.00038338292515449764
8.179784915502518 0.00043144884412909135
8.18369121202377 0.00048378728923476007
8.187597508545023 0.0004869916838330663
8.191503805066276 0.00048561837186236365
8.195410101587527 0.0004999618524452583
8.19931639810878 0.0005332265201800565
8.203222694630032 0.0005883115892271305
8.207128991151285 0.0005988403143358511
8.211035287672537 0.0005851071946288243
8.21494158419379 0.0005916685740444038
8.218847880715042 0.0006232547493705653
8.222754177236295 0.0006728465705348287
8.226660473757546 0.0006755931944762341
8.230566770278799 0.0006519417105363546
8.234473066800051 0.0006386663614862287
8.238379363321304 0.0006414129854276342
8.242285659842556 0.0006736095216296637
8.246191956363809 0.0006569771877622645
8.250098252885062 0.0005918211642633708
8.254004549406314 0.0005403982604715037
8.257910845927565 0.0005043869687953002
8.261817142448818 0.0004932478828107118
8.26572343897007 0.0004489967193102922
8.269629735491323 0.000360494392309453
8.273536032012576 0.00028130006866559855
8.277442328533828 0.0002162966353856718
8.281348625055081 0.0001880674448767834
8.285254921576332 0.00015068284122987717
8.289161218097584 7.072556649118791e-05
8.293067514618837 2.9755092698558025e-06
8.29697381114009 -3.959716182192721e-05
8.300880107661342 -4.921034561684596e-05
8.304786404182595 -6.660563057907988e-05
8.308692700703848 -0.00011833371480888075
8.3125989972251 -0.00015754940108339056
8.316505293746351 -0.00017753871976806287
8.320411590267604 -0.000168535896849012
8.324317886788856 -0.000159838254367895
8.328224183310109 -0.00018989852750438696
8.332130479831362 -0.00021828030823224233
8.336036776352614 -0.00022957198443579767
8.339943072873867 -0.00020836194399938965
8.34384936939512 -0.0001799801632715343
8.34775566591637 -0.0002008850232700084
8.351661962437623 -0.00022957198443579767
8.355568258958876 -0.00023720149538414588
8.359474555480128 -0.00021263447013046463
8.36338085200138 -0.00017753871976806287
8.367287148522633 -0.00019508659494926376
8.371193445043886 -0.00022423132677195393
8.375099741565137 -0.00022957198443579767
8.37900603808639 -0.00021248187991149768
8.382912334607642 -0.00017738612954909592
8.386818631128895 -0.00018547341115434502
8.390724927650147 -0.00021599145494773786
8.3946312241714 -0.0002256046387426566
8.398537520692653 -0.00021385519188220033
8.402443817213905 -0.00017753871976806287
8.406350113735156 -0.00017860685130083163
8.410256410256409 -0.0002115663385976959
8.414162706777661 -0.00022331578545815216
8.418069003298914 -0.00021553368429083698
8.421975299820167 -0.000185626001373312
8.42588159634142 -0.00017967498283360037
8.429787892862672 -0.00020927748531319144
8.433694189383925 -0.00022926680399786372
8.437600485905175 -0.0002277409018081941
8.441506782426428 -0.00019768062867170214
8.44541307894768 -0.00018913557640955214
8.449319375468933 -0.0002150759136339361
8.453225671990186 -0.00022865644312199587
8.457131968511439 -0.00022789349202716105
8.461038265032691 -0.00019981689173723965
8.464944561553942 -0.00018318455786984055
8.468850858075195 -0.00021431296253910124
8.472757154596447 -0.00023918516823071643
8.4766634511177 -0.00023537041275654232
8.480569747638953 -0.00020622568093385212
8.484476044160205 -0.00019310292210269323
8.488382340681458 -0.00022056916151674678
8.49228863720271 -0.00024299992370489053
8.496194933723961 -0.00024452582589456015
8.500101230245214 -0.00021690699626153966
8.504007526766467 -0.00019310292210269323
8.50791382328772 -0.0002175173571374075
8.511820119808972 -0.00024452582589456015
8.515726416330224 -0.0002489509422446021
8.519632712851477 -0.00022331578545815216
8.52353900937273 -0.0001932555123216602
8.52744530589398 -0.00021171892881666286
8.531351602415233 -0.0002439154650186923
8.535257898936486 -0.0002565804531929503
8.539164195457738 -0.00023781185626001373
8.543070491978991 -0.00020408941786831465
8.546976788500244 -0.00021248187991149768
8.550883085021496 -0.00024040588998245214
8.554789381542747 -0.00025490196078431374
8.558695678064 -0.0002434576943617914
8.562601974585252 -0.0002115663385976959
8.566508271106505 -0.00021614404516670483
8.570414567627758 -0.00024315251392385747
8.57432086414901 -0.0002553597314412146
8.578227160670263 -0.0002466620889600977
8.582133457191516 -0.0002150759136339361
8.586039753712766 -0.00021080338750286106
8.589946050234019 -0.00023949034866865035
8.593852346755272 -0.00025795376516365303
8.597758643276524 -0.00024849317158770126
8.601664939797777 -0.00021355001144426642
8.60557123631903 -0.00020759899290455483
8.609477532840282 -0.00023781185626001373
8.613383829361535 -0.00025627527275501636
8.617290125882786 -0.0002466620889600977
8.621196422404038 -0.00021355001144426642
8.625102718925291 -0.00020576791027695124
8.629009015446544 -0.00023155565728236822
8.632915311967796 -0.0002489509422446021
8.636821608489049 -0.0002454413672083619
8.640727905010301 -0.00021248187991149768
8.644634201531552 -0.00019844357976653697
8.648540498052805 -0.00022636758983749143
8.652446794574058 -0.00024757763027389944
8.65635309109531 -0.00025123979552910656
8.660259387616563 -0.0002191958495460441
8.664165684137815 -0.00018944075684748608
8.668071980659068 -0.00021202410925459677
8.67197827718032 -0.00023903257801174946
8.675884573701572 -0.0002439154650186923
8.679790870222824 -0.00021828030823224233
8.683697166744077 -0.00019035629816128785
8.68760346326533 -0.00020744640268558788
8.691509759786582 -0.00023308155947203784
8.695416056307835 -0.00024315251392385747
8.699322352829087 -0.00022194247348744945
8.70322864935034 -0.00018654154268711375
8.70713494587159 -0.00019951171129930573
8.711041242392843 -0.00022545204852368963
8.714947538914096 -0.00023277637903410393
8.718853835435349 -0.0002191958495460441
8.722760131956601 -0.00018730449378194858
8.726666428477854 -0.0001932555123216602
8.730572724999107 -0.00022026398107881284
8.734479021520357 -0.00022957198443579767
8.73838531804161 -0.00021736476691844054
8.742291614562863 -0.0001859311818112459
8.746197911084115 -0.00019035629816128785
8.750104207605368 -0.00021843289845120928
8.75401050412662 -0.00022743572137026016
8.757916800647873 -0.0002150759136339361
8.761823097169126 -0.0001778439002059968
8.765729393690377 -0.0001752498664835584
8.76963569021163 -0.00021126115815976198
8.773541986732882 -0.0002272831311512932
8.777448283254135 -0.00021599145494773786
8.781354579775387 -0.00018013275349050125
8.78526087629664 -0.0001718928816662852
8.789167172817892 -0.00020393682764934768
8.793073469339145 -0.00022240024414435034
8.796979765860396 -0.00021736476691844054
8.800886062381649 -0.0001799801632715343
8.804792358902901 -0.0001612115663385977
8.808698655424154 -0.00018867780575265126
8.812604951945406 -0.00020744640268558788
8.816511248466659 -0.00020927748531319144
8.820417544987912 -0.0001799801632715343
8.824323841509162 -0.0001535820553902495
8.828230138030415 -0.0001783016708628977
8.832136434551668 -0.00020210574502174412
8.83604273107292 -0.00020500495918211641
8.839949027594173 -0.00018379491874570843
8.843855324115426 -0.00015754940108339056
8.847761620636678 -0.00017204547188525216
8.85166791715793 -0.00019630731670099947
8.855574213679182 -0.0002034790569924468
8.859480510200434 -0.0001833371480888075
8.863386806721687 -0.0001548027771419852
8.86729310324294 -0.0001671625848783093
8.871199399764192 -0.00019050888838025482
8.875105696285445 -0.00019539177538719767
8.879011992806698 -0.00017906462195773251
8.88291828932795 -0.00015129320210574503
8.886824585849201 -0.00015678644998855573
8.890730882370454 -0.00017509727626459142
8.894637178891706 -0.0001723506523231861
8.898543475412959 -0.00013923857480735487
8.902449771934211 -8.644235904478523e-05
8.906356068455464 -7.713435568780042e-05
8.910262364976717 -9.819180590524148e-05
8.914168661497968 -9.742885481040665e-05
8.91807495801922 -6.614785992217898e-05
8.921981254540473 -1.304646372167544e-05
8.925887551061725 -6.942854962996871e-06
8.929793847582978 -4.005493247882811e-05
8.93370014410423 -4.829480430304418e-05
8.937606440625483 -4.325932707713436e-05
8.941512737146736 -3.4866865033951324e-05
8.945419033667987 -4.158083466849775e-05
8.94932533018924 -6.630045014114595e-05
8.953231626710492 -8.690012970168612e-05
8.957137923231745 -8.949416342412451e-05
8.961044219752997 -6.401159685664148e-05
8.96495051627425 -7.37773708705272e-05
8.968856812795503 -0.00012550545510032807
8.972763109316755 -0.00016395819028000306
8.976669405838006 -0.0001863889524681468
8.980575702359259 -0.00016655222400244145
8.984481998880511 -0.00015129320210574503
8.988388295401764 -0.00018410009918364234
8.992294591923017 -0.0002089723048752575
8.99620088844427 -0.00021843289845120928
9.000107184965522 -0.00019676508735790035
9.004013481486773 -0.00017570763714045928
9.007919778008025 -0.00019996948195620662
9.011826074529278 -0.00021736476691844054
9.01573237105053 -0.0002225528343633173
9.019638667571783 -0.0002022583352407111
9.023544964093036 -0.00017738612954909592
9.027451260614288 -0.00020180056458381018
9.031357557135541 -0.00021843289845120928
9.035263853656792 -0.00021690699626153966
9.039170150178045 -0.00019539177538719767
9.043076446699297 -0.0001638056000610361
9.04698274322055 -0.00018135347524223696
9.050889039741802 -0.00020836194399938965
9.054795336263055 -0.00021660181582360571
9.058701632784308 -0.00019371328297856108
9.06260792930556 -0.0001752498664835584
9.066514225826811 -0.00021126115815976198
9.070420522348064 -0.00023186083772030214
9.074326818869316 -0.0002170595864805066
9.078233115390569 -0.00012352178225375754
9.082139411911822 3.471427481498436e-05
9.086045708433074 0.0001863889524681468
9.089952004954327 0.0004683756771190967
9.093858301475578 0.0008912031738765546
9.09776459799683 0.0013277637903410392
9.101670894518083 0.0017046616311894407
9.105577191039336 0.0019614709697108415
9.109483487560588 0.002078812848096437
9.113389784081841 0.0019259174486915389
9.117296080603094 0.001460517280842298
9.121202377124346 0.0007836270695048448
9.125108673645597 8.690012970168612e-05
9.12901497016685 -0.0002619211108567941
9.132921266688102 -0.00028267338063630123
9.136827563209355 -0.00024269474326695659
9.140733859730608 -0.00016426337071793698
9.14464015625186 -0.00011528191042954146
9.148546452773113 -0.00010902571145189594
9.152452749294365 -6.889448386358435e-05
9.156359045815616 -2.1133745326924547e-05
9.160265342336869 2.4643320363164722e-05
9.164171638858122 3.410391393911651e-05
9.168077935379374 4.348821240558481e-06
9.171984231900627 -1.1673151750972763e-05
9.17589052842188 -1.0910200656137941e-05
9.179796824943132 2.0523384451056686e-05
9.183703121464383 4.7531853208209355e-05
9.187609417985636 2.9678797589074538e-05
9.191515714506888 1.121538109407187e-05
9.19542201102814 1.2588693064774549e-05
9.199328307549393 4.585336079957275e-05
9.203234604070646 8.049134050507363e-05
9.207140900591899 6.691081101701381e-05
9.211047197113151 4.219119554436561e-05
9.214953493634402 3.9902342259861144e-05
9.218859790155655 7.225146868085756e-05
9.222766086676907 0.00011207751583123522
9.22667238319816 0.00010337987335011826
9.230578679719413 8.094911116197452e-05
9.234484976240665 7.652399481193256e-05
9.238391272761918 9.98702983138781e-05
9.24229756928317 0.000147173266193637
9.246203865804421 0.00015419241626611735
9.250110162325674 0.0001338979171435111
9.254016458846927 0.00012947280079346916
9.25792275536818 0.00015205615320057982
9.261829051889432 0.00020027466239414056
9.265735348410685 0.0002115663385976959
9.269641644931937 0.00019249256122682537
9.273547941453188 0.0001902037079423209
9.27745423797444 0.00020927748531319144
9.281360534495693 0.00025642786297398333
9.285266831016946 0.0002759594110017548
9.289173127538199 0.0002619211108567941
9.293079424059451 0.0002626840619516289
9.296985720580704 0.0002817578393224994
9.300892017101956 0.00032936598764019226
9.304798313623207 0.0003550011444266423
9.30870461014446 0.00034279392690928515
9.312610906665713 0.00034660868238345924
9.316517203186965 0.00036934462500953693
9.320423499708218 0.00042153047989623867
9.32432979622947 0.00045769436179140914
9.328236092750723 0.00044945448996719313
9.332142389271976 0.00045448996719310293
9.336048685793227 0.00048012512397955294
9.33995498231448 0.0005358205539024948
9.343861278835732 0.0005819028000305181
9.347767575356984 0.0005765621423666743
9.351673871878237 0.00057778286411841
9.35558016839949 0.0006020447089341573
9.359486464920742 0.0006534676127260242
9.363392761441995 0.0007006179903868161
9.367299057963246 0.0006954299229419394
9.371205354484498 0.0006884107728694591
9.375111651005751 0.000697108415350576
9.379017947527004 0.0007329671168078126
9.382924244048256 0.0007811856260013733
9.386830540569509 0.0007795071335927367
9.390736837090762 0.000761043717097734
9.394643133612012 0.0007529564354924849
9.398549430133265 0.000765926604104677
9.402455726654518 0.0007898832684824903
9.40636202317577 0.0007633325703822384
9.410268319697023 0.0007172503242542153
9.414174616218276 0.0006763561455710689
9.418080912739528 0.0006470588235294118
9.42198720926078 0.0006391241321431296
9.425893505782032 0.0005831235217822539
9.429799802303284 0.0004962996871900511
9.433706098824537 0.00042626077668421453
9.43761239534579 0.0003751430533302815
9.441518691867042 0.0003501182574196994
9.445424988388295 0.00029289692530708785
9.449331284909547 0.00021141374837872892
9.4532375814308 0.00015281910429541467
9.457143877952051 0.00011421377889677272
9.461050174473304 0.00010658426794842451
9.464956470994556 7.728694590676737e-05
9.468862767515809 1.7166399633783478e-05
9.472769064037061 -2.3880369268329898e-05
9.476675360558314 -4.005493247882811e-05
9.480581657079567 -2.021820401312276e-05
9.484487953600818 -2.250705729762722e-05
9.48839425012207 -6.660563057907988e-05
9.492300546643323 -9.239337758449684e-05
9.496206843164575 -9.269855802243077e-05
9.500113139685828 -6.050202182040131e-05
9.50401943620708 -4.371709773403525e-05
9.507925732728333 -7.392996108949417e-05
9.511832029249586 -9.773403524834058e-05
9.515738325770837 -0.00010078583962767987
9.51964462229209 -7.026779583428702e-05
9.523550918813342 -4.5090409704737927e-05
9.527457215334595 -6.904707408255131e-05
9.531363511855847 -9.544518196383611e-05
9.5352698083771 -0.00010414282444495308
9.539176104898353 -7.743953612573434e-05
9.543082401419605 -4.341191729610132e-05
9.546988697940856 -6.126497291523613e-05
9.550894994462109 -8.552681773098345e-05
9.554801290983361 -9.224078736552988e-05
9.558707587504614 -7.560845349813077e-05
9.562613884025867 -4.325932707713436e-05
9.56652018054712 -5.241474021515221e-05
9.570426477068372 -7.881284809643702e-05
9.574332773589623 -8.61371786068513e-05
9.578239070110875 -7.133592736705577e-05
9.582145366632128 -4.325932707713436e-05
9.58605166315338 -5.28725108720531e-05
9.589957959674633 -8.140688181887542e-05
9.593864256195886 -9.178301670862897e-05
9.597770552717138 -7.743953612573434e-05
9.601676849238391 -4.493781948577096e-05
9.605583145759642 -5.317769130998703e-05
9.609489442280895 -8.690012970168612e-05
9.613395738802147 -0.00010170138094148165
9.6173020353234 -9.269855802243077e-05
9.621208331844652 -5.806057831692989e-05
9.625114628365905 -5.806057831692989e-05
9.629020924887158 -9.330891889829862e-05
9.63292722140841 -0.00011253528648813612
9.636833517929661 -0.00010673685816739147
9.640739814450914 -7.347219043259327e-05
9.644646110972166 -7.042038605325399e-05
9.648552407493419 -0.00010460059510185398
9.652458704014672 -0.0001274891279468986
9.656365000535924 -0.0001277943083848325
9.660271297057177 -9.056229495689327e-05
9.664177593578428 -7.698176546883345e-05
9.66808389009968 -0.00011039902342259862
9.671990186620933 -0.0001305409323262379
9.675896483142186 -0.0001351186388952468
9.679802779663438 -0.00011070420386053254
9.683709076184691 -8.964675364309148e-05
9.687615372705944 -0.00011268787670710307
9.691521669227196 -0.00013450827801937896
9.695427965748447 -0.00014000152590218967
9.6993342622697 -0.00011833371480888075
9.703240558790952 -9.72762645914397e-05
9.707146855312205 -0.00011833371480888075
9.711053151833458 -0.0001419851987487602
9.71495944835471 -0.00014991989013504235
9.718865744875963 -0.00012703135728999772
9.722772041397215 -9.84969863431754e-05
9.726678337918466 -0.00011741817349507897
9.730584634439719 -0.00014351110093842984
9.734490930960972 -0.00015083543144884411
9.738397227482224 -0.00013420309758144502
9.742303524003477 -0.00010353246356908522
9.74620982052473 -0.00011436636911573968
9.750116117045982 -0.0001424429694056611
9.754022413567233 -0.00015083543144884411
9.757928710088486 -0.00013282978561074237
9.761835006609738 -9.864957656214236e-05
9.76574130313099 -0.00010627908751049057
9.769647599652243 -0.00014015411612115664
9.773553896173496 -0.00015434500648508432
9.777460192694749 -0.00013832303349355307
9.781366489216001 -9.941252765697718e-05
9.785272785737252 -9.98702983138781e-05
9.789179082258505 -0.00013252460517280842
9.793085378779757 -0.0001480888075074388
9.79699167530101 -0.00014061188677805752
9.800897971822263 -0.00010597390707255664
9.804804268343515 -9.742885481040665e-05
9.808710564864768 -0.0001287098496986343
9.81261686138602 -0.00014854657816433967
9.816523157907271 -0.0001444266422522316
9.820429454428524 -0.00010887312123292897
9.824335750949777 -9.239337758449684e-05
9.82824204747103 -0.00012199588006408789
9.832148343992282 -0.00014274814984359502
9.836054640513535 -0.0001415274280918593
9.839960937034787 -0.000112993057145037
9.843867233556038 -9.46822308690013e-05
9.84777353007729 -0.00011879148546578164
9.851679826598543 -0.00013923857480735487
9.855586123119796 -0.00014061188677805752
9.859492419641048 -0.00011589227130540933
9.863398716162301 -9.452964065003433e-05
9.867305012683554 -0.00011543450064850844
9.871211309204806 -0.0001369497215228504
9.875117605726057 -0.00013923857480735487
9.87902390224731 -0.00011451895933470665
9.882930198768562 -8.964675364309148e-05
9.886836495289815 -0.00011161974517433434
9.890742791811068 -0.00013542381933318075
9.89464908833232 -0.00013633936064698252
9.898555384853573 -0.0001139085984588388
9.902461681374826 -8.522163729304953e-05
9.906367977896076 -0.00010322728313115129
9.910274274417329 -0.00013344014648661022
9.914180570938582 -0.00014229037918669414
9.918086867459834 -0.00012214847028305486
9.921993163981087 -8.430609597924773e-05
9.92589946050234 -9.46822308690013e-05
9.929805757023592 -0.0001274891279468986
9.933712053544843 -0.00014015411612115664
9.937618350066096 -0.00012825207904173342
9.941524646587348 -9.224078736552988e-05
9.945430943108601 -9.498741130693522e-05
9.949337239629854 -0.0001265735866330968
9.953243536151106 -0.00014106965743495843
9.957149832672359 -0.00013374532692454413
9.961056129193611 -9.819180590524148e-05
9.964962425714862 -9.285114824139774e-05
9.968868722236115 -0.00012123292896925308
9.972775018757368 -0.00013771267261768522
9.97668131527862 -0.00013466086823834593
9.980587611799873 -0.00010048065918974595
9.984493908321125 -9.102006561379415e-05
9.988400204842378 -0.00011833371480888075
9.99230650136363 -0.00013374532692454413
9.996212797884882 -0.00013328755626764325
10.000119094406134 -0.00010307469291218433
10.004025390927387 -9.147783627069505e-05
10.00793168744864 -0.0001198596169985504
10.011837983969892 -0.0001351186388952468
10.015744280491145 -0.00013542381933318075
10.019650577012397 -0.00010627908751049057
10.023556873533648 -8.690012970168612e-05
10.0274631700549 -0.00011451895933470665
10.031369466576153 -0.0001355764095521477
10.035275763097406 -0.0001369497215228504
10.039182059618659 -0.00010994125276569772
10.043088356139911 -8.78156710154879e-05
10.046994652661164 -0.00011314564736400397
10.050900949182417 -0.0001364919508659495
10.054807245703667 -0.00014183260852979323
10.05871354222492 -0.00011573968108644237
10.062619838746173 -8.461127641718166e-05
10.066526135267425 -0.00010460059510185398
10.070432431788678 -0.00013069352254520486
10.07433872830993 -0.0001390859845883879
10.078245024831183 -0.00011696040283817808
10.082151321352436 -8.094911116197452e-05
10.086057617873687 -9.46822308690013e-05
10.08996391439494 -0.00012199588006408789
10.093870210916192 -0.0001360341802090486
10.097776507437445 -0.00012336919203479057
10.101682803958697 -8.06439307240406e-05
10.10558910047995 -8.415350576028077e-05
10.109495397001202 -0.00011589227130540933
10.113401693522453 -0.0001287098496986343
10.117307990043706 -0.00011589227130540933
10.121214286564959 -8.11017013809415e-05
10.125120583086211 -8.461127641718166e-05
10.129026879607464 -0.000112993057145037
10.132933176128716 -0.00012703135728999772
10.136839472649969 -0.00012352178225375754
10.140745769171222 -9.46822308690013e-05
10.144652065692473 -9.132524605172808e-05
10.148558362213725 -0.00011451895933470665
10.152464658734978 -0.00012214847028305486
10.15637095525623 -0.00010551613641565576
10.160277251777483 -5.8213168535896854e-05
10.164183548298736 -2.9678797589074538e-05
10.168089844819988 -4.0512703135729004e-05
10.171996141341241 -4.997329671168078e-05
10.175902437862492 -3.288319218738079e-05
10.179808734383744 1.7624170290684368e-05
10.183715030904997 4.676890211337453e-05
10.18762132742625 2.8305485618371864e-05
10.191527623947502 4.8065918974593735e-06
10.195433920468755 3.891050583657588e-06
10.199340216990008 2.9221026932173648e-05
10.203246513511258 2.1591515983825437e-05
10.207152810032511 -2.2201876859693294e-05
10.211059106553764 -4.112306401159686e-05
10.214965403075016 -4.6463721675440604e-05
10.218871699596269 -2.571145189593347e-05
10.222777996117522 -6.332494087129015e-06
10.226684292638774 -4.8142214084077215e-05
10.230590589160027 -0.00010093842984664683
10.234496885681278 -0.00013282978561074237
10.23840318220253 -0.00012886243991760128
10.242309478723783 -0.00010673685816739147
10.246215775245036 -0.0001284046692607004
10.250122071766288 -0.00016151674677653165
10.25402836828754 -0.00017738612954909592
10.257934664808793 -0.00016746776531624321
10.261840961330046 -0.00013633936064698252
10.265747257851297 -0.000147173266193637
10.26965355437255 -0.00017647058823529413
10.273559850893802 -0.0001863889524681468
10.277466147415055 -0.00017860685130083163
10.281372443936307 -0.00014732585641260396
10.28527874045756 -0.0001505302510109102
10.289185036978813 -0.00017967498283360037
10.293091333500064 -0.000185626001373312
10.296997630021316 -0.00017418173495078966
10.300903926542569 -0.00014229037918669414
10.304810223063821 -0.00014106965743495843
10.308716519585074 -0.0001705195696955825
10.312622816106327 -0.0001804379339284352
10.31652911262758 -0.0001743343251697566
10.320435409148832 -0.00013969634546425575
10.324341705670083 -0.00014579995422293432
10.328248002191335 -0.00019905394064240482
10.332154298712588 -0.00021202410925459677
10.33606059523384 -0.0001880674448767834
10.339966891755093 -8.339055466544594e-05
10.343873188276346 4.081788357366293e-05
10.347779484797599 0.00014168001831082628
10.351685781318851 0.00040321965362020295
10.355592077840102 0.0008261997405966278
10.359498374361355 0.0012841229877164875
10.363404670882607 0.001661020828564889
10.36731096740386 0.001903791866941329
10.371217263925113 0.0020463111314564736
10.375123560446365 0.0019456015869382772
10.379029856967618 0.0015508506904707408
10.382936153488869 0.0009163805600061036
10.386842450010121 0.0001795223926146334
10.390748746531374 -0.00023811703669794764
10.394655043052627 -0.00027458609903105213
10.39856133957388 -0.00020363164721141376
10.402467636095132 -0.0001265735866330968
10.406373932616384 -0.00010643167772945754
10.410280229137637 -9.941252765697718e-05
10.414186525658888 -4.6463721675440604e-05
10.41809282218014 1.335164415960937e-05
10.421999118701393 5.088883802548257e-05
10.425905415222646 3.273060196841383e-05
10.429811711743898 2.5177386129549097e-06
10.433718008265151 -5.111772335393301e-06
10.437624304786404 1.0757610437170978e-05
10.441530601307656 4.844739452201114e-05
10.445436897828907 4.448004882887007e-05
10.44934319435016 2.204928664072633e-05
10.453249490871412 1.9760433356221866e-05
10.457155787392665 3.8071259632257576e-05
10.461062083913918 7.911802853437095e-05
10.46496838043517 8.003356984817274e-05
10.468874676956423 5.088883802548257e-05
10.472780973477674 4.524299992370489e-05
10.476687269998926 6.73685816739147e-05
10.480593566520179 0.0001139085984588388
10.484499863041432 0.00012230106050202183
10.488406159562684 9.620813305867094e-05
10.492312456083937 8.598458838788434e-05
10.49621875260519 9.98702983138781e-05
10.500125049126442 0.00014656290531776914
10.504031345647693 0.00016685740444037536
10.507937642168946 0.00014656290531776914
10.511843938690198 0.00013633936064698252
10.515750235211451 0.00014427405203326467
10.519656531732704 0.00018364232852674146
10.523562828253956 0.00020881971465629053
10.527469124775209 0.00019340810254062717
10.531375421296461 0.00018501564049744413
10.535281717817712 0.00019310292210269323
10.539188014338965 0.0002329289692530709
10.543094310860218 0.0002677195391775387
10.54700060738147 0.00025749599450675207
10.550906903902723 0.0002478828107118334
10.554813200423975 0.00025612268253604945
10.558719496945228 0.0002950331883726253
10.562625793466479 0.00033485923552300297
10.566532089987732 0.00032936598764019226
10.570438386508984 0.0003229571984435798
10.574344683030237 0.00033669031815060656
10.57825097955149 0.0003783474479285878
10.582157276072742 0.0004271763179980163
10.586063572593995 0.00042977035172045474
10.589969869115247 0.000424429694056611
10.593876165636498 0.00044151979858091095
10.59778246215775 0.00048592355230029754
10.601688758679003 0.0005414663920042725
10.605595055200256 0.0005503166247043565
10.609501351721509 0.000543755245288777
10.613407648242761 0.0005574883649958038
10.617313944764014 0.0005963988708323797
10.621220241285267 0.0006542305638208591
10.625126537806517 0.0006652170595864805
10.62903283432777 0.0006528572518501565
10.632939130849023 0.0006585030899519341
10.636845427370275 0.0006879530022125582
10.640751723891528 0.0007448691538872359
10.64465802041278 0.000760891126878767
10.648564316934033 0.0007430380712596323
10.652470613455284 0.000739986266880293
10.656376909976537 0.0007500572213321126
10.66028320649779 0.0007875944151979858
10.664189503019042 0.0007973601892118715
10.668095799540295 0.0007592126344701304
10.672002096061547 0.0007206073090714885
10.6759083925828 0.0006952773327229724
10.679814689104052 0.0006974135957885099
10.683720985625303 0.0006710154879072251
10.687627282146556 0.0005983825436789502
10.691533578667809 0.0005313954375524529
10.695439875189061 0.0004724956130312047
10.699346171710314 0.0004404516670481422
10.703252468231566 0.00040062561989776457
10.707158764752819 0.00031960021362630655
10.711065061274072 0.00024742504005493247
10.714971357795323 0.00019584954604409858
10.718877654316575 0.000176928358892195
10.722783950837828 0.0001552605477988861
10.72669024735908 9.208819714656291e-05
10.730596543880333 3.5782406347753105e-05
10.734502840401586 1.6021972991531246e-06
10.738409136922838 4.501411459525445e-06
10.74231543344409 1.2130922407873655e-05
10.746221729965342 -2.7847714961470967e-05
10.750128026486594 -6.26382848859388e-05
10.754034323007847 -7.713435568780042e-05
10.7579406195291 -6.172274357213703e-05
10.761846916050352 -3.288319218738079e-05
10.765753212571605 -5.50087739375906e-05
10.769659509092858 -8.552681773098345e-05
10.773565805614108 -9.590295262073702e-05
10.777472102135361 -7.92706187533379e-05
10.781378398656614 -4.234378576333257e-05
10.785284695177866 -5.1499198901350423e-05
10.789190991699119 -7.92706187533379e-05
10.793097288220372 -9.361409933623255e-05
10.797003584741624 -8.61371786068513e-05
10.800909881262877 -4.493781948577096e-05
10.804816177784128 -4.386968795300221e-05
10.80872247430538 -7.667658503089952e-05
10.812628770826633 -9.086747539482719e-05
10.816535067347886 -8.11017013809415e-05
10.820441363869138 -4.676890211337453e-05
10.82434766039039 -4.4174868390936146e-05
10.828253956911643 -6.981002517738613e-05
10.832160253432894 -8.430609597924773e-05
10.836066549954147 -8.61371786068513e-05
10.8399728464754 -5.6687266346227206e-05
10.843879142996652 -5.226214999618525e-05
10.847785439517905 -8.506904707408256e-05
10.851691736039157 -9.910734721904326e-05
10.85559803256041 -9.697108415350577e-05
10.859504329081663 -6.858930342565043e-05
10.863410625602913 -5.7755397878995964e-05
10.867316922124166 -9.178301670862897e-05
10.871223218645419 -0.00011116197451743343
10.875129515166671 -0.00011360341802090487
10.879035811687924 -9.010452429999237e-05
10.882942108209177 -7.042038605325399e-05
10.88684840473043 -0.00010322728313115129
10.890754701251682 -0.00013206683451590754
10.894660997772933 -0.00013420309758144502
10.898567294294185 -0.0001108567940794995
10.902473590815438 -8.842603189135578e-05
10.90637988733669 -0.00011589227130540933
10.910286183857943 -0.00014778362706950485
10.914192480379196 -0.00015403982604715038
10.918098776900448 -0.00013191424429694057
10.9220050734217 -0.00010185397116044861
10.925911369942952 -0.00011894407568474861
10.929817666464205 -0.00015251392385748076
10.933723962985457 -0.0001680781261921111
10.93763025950671 -0.00015129320210574503
10.941536556027962 -0.00011619745174334325
10.945442852549215 -0.00012687876707103075
10.949349149070468 -0.0001581597619592584
10.953255445591719 -0.00017387655451285572
10.957161742112971 -0.00016304264896620127
10.961068038634224 -0.0001305409323262379
10.964974335155476 -0.00013923857480735487
10.968880631676729 -0.00016746776531624321
10.972786928197982 -0.00018242160677500572
10.976693224719234 -0.0001778439002059968
10.980599521240487 -0.00014305333028152896
10.984505817761738 -0.00014488441290913255
10.98841211428299 -0.00017616540779736022
10.992318410804243 -0.00019050888838025482
10.996224707325496 -0.00018730449378194858
11.000131003846748 -0.00015388723582818344
11.004037300368001 -0.00014946211947814144
11.007943596889254 -0.0001783016708628977
11.011849893410504 -0.0001909666590371557
11.015756189931757 -0.00019081406881818876
11.01966248645301 -0.00016044861524376288
11.023568782974262 -0.00014946211947814144
11.027475079495515 -0.00018364232852674143
11.031381376016768 -0.00020454718852521553
11.03528767253802 -0.00020210574502174412
11.039193969059273 -0.00017158770122835127
11.043100265580524 -0.00015297169451438164
11.047006562101776 -0.00018242160677500572
11.050912858623029 -0.00021431296253910124
11.054819155144282 -0.00021965362020294498
11.058725451665534 -0.0001863889524681468
11.062631748186787 -0.0001586175326161593
11.06653804470804 -0.0001778439002059968
11.070444341229292 -0.00020500495918211641
11.074350637750543 -0.00021644922560463874
11.078256934271796 -0.00019371328297856108
11.082163230793048 -0.00016578927290760662
11.0860695273143 -0.00018104829480430304
11.089975823835553 -0.00020759899290455483
11.093882120356806 -0.00021843289845120928
11.097788416878059 -0.00019844357976653697
11.10169471339931 -0.0001705195696955825
11.105601009920562 -0.00018699931334401467
11.109507306441815 -0.00021309224078736554
11.113413602963067 -0.00022194247348744945
11.11731989948432 -0.00020576791027695124
11.121226196005573 -0.00017296101319905395
11.125132492526825 -0.00018242160677500572
11.129038789048078 -0.0002101930266269932
11.132945085569329 -0.00021980621042191195
11.136851382090581 -0.00020851453421835662
11.140757678611834 -0.00017570763714045928
11.144663975133087 -0.00018059052414740216
11.14857027165434 -0.0002101930266269932
11.152476568175592 -0.00021828030823224233
11.156382864696845 -0.00020790417334248877
11.160289161218097 -0.00017860685130083163
11.164195457739348 -0.00017921721217669948
11.1681017542606 -0.00021339742122529945
11.172008050781853 -0.00023277637903410393
11.175914347303106 -0.00022377355611505304
11.179820643824359 -0.000185626001373312
11.183726940345611 -0.000176928358892195
11.187633236866864 -0.00020836194399938965
11.191539533388115 -0.00023002975509269855
11.195445829909367 -0.000228198672465095
11.19935212643062 -0.00018989852750438696
11.203258422951873 -0.0001697566186007477
11.207164719473125 -0.0001949340047302968
11.211071015994378 -0.00021782253757534142
11.21497731251563 -0.0002268253604943923
11.218883609036883 -0.00019630731670099947
11.222789905558134 -0.00017280842298008698
11.226696202079387 -0.00020027466239414056
11.23060249860064 -0.00022301060502021822
11.234508795121892 -0.00022880903334096284
11.238415091643144 -0.0002022583352407111
11.242321388164397 -0.0001723506523231861
11.24622768468565 -0.00019554436560616464
11.250133981206902 -0.00022163729304951551
11.254040277728153 -0.00022697795071335928
11.257946574249406 -0.00020653086137178606
11.261852870770658 -0.00018272678721293964
11.265759167291911 -0.00020531013962005036
11.269665463813164 -0.00022972457465476464
11.273571760334416 -0.00023231860837720302
