t Pleth
0.0 0.0004102388036926833
0.003906296521252396 0.0004079499504081788
0.007812593042504793 0.00040581368734264134
0.01171888956375719 0.00040383001449607084
0.015625186085009585 0.0004016937514305333
0.01953148260626198 0.00039940489814602886
0.02343777912751438 0.0003968108644235904
0.027344075648766775 0.0003937590600442512
0.03125037217001917 0.000390249485008011
0.03515666869127157 0.0003862821393148699
0.03906296521252396 0.00038170443274586097
0.04296926173377636 0.0003766689555199512
0.04687555825502876 0.00037117570763714046
0.05078185477628115 0.0003653772793163958
0.05468815129753355 0.0003591210803387503
0.05859444781878594 0.00035255970092317086
0.06250074434003834 0.0003458457312886244
0.06640704086129073 0.00033913176165407797
0.07031333738254314 0.0003322652018005646
0.07421963390379553 0.0003253986419470512
0.07812593042504792 0.0003186846723125047
0.08203222694630033 0.00031212329289692533
0.08593852346755272 0.00030571450370031286
0.08984481998880511 0.0002994583047226673
0.09375111651005752 0.0002933546959639887
0.09765741303130991 0.0002874036774242771
0.1015637095525623 0.0002817578393224994
0.1054700060738147 0.0002764171816586557
0.1093763025950671 0.00027138170443274587
0.1132825991163195 0.00026665140764476996
0.11718889563757189 0.00026222629129472804
0.12109519215882429 0.00025795376516365303
0.12500148868007668 0.00025383382925154495
0.1289077852013291 0.0002498664835584039
0.13281408172258147 0.0002458991378652628
0.13672037824383387 0.00024208438239108873
0.14062667476508628 0.00023857480735484858
0.14453297128633866 0.00023521782253757534
0.14843926780759106 0.00023216601815823608
0.15234556432884347 0.00022926680399786372
0.15625186085009585 0.00022667277027542534
0.16015815737134825 0.0002243839169909209
0.16406445389260066 0.00022224765392538337
0.16797075041385304 0.0002201113908598459
0.17187704693510544 0.0002179751277943084
0.17578334345635785 0.00021553368429083698
0.17968963997761023 0.0002127870603494316
0.18359593649886263 0.00020958266575112536
0.18750223302011504 0.00020576791027695124
0.19140852954136742 0.0002013427939269093
0.19531482606261982 0.00019645990691996644
0.1992211225838722 0.00019111924925612267
0.2031274191051246 0.00018547341115434502
0.207033715626377 0.00017967498283360037
0.2109400121476294 0.00017387655451285572
0.2148463086688818 0.0001680781261921111
0.2187526051901342 0.00016243228809033341
0.22265890171138658 0.00015709163042648968
0.226565198232639 0.0001522087434195468
0.2304714947538914 0.00014793621728847182
0.23437779127514377 0.00014427405203326467
0.23828408779639618 0.00014122224765392537
0.24219038431764858 0.00013893339436942093
0.24609668083890096 0.00013725490196078434
0.25000297736015337 0.00013633936064698252
0.2539092738814058 0.0001360341802090486
0.2578155704026582 0.00013618677042801555
0.26172186692391053 0.00013664454108491648
0.26562816344516293 0.00013756008239871825
0.26953445996641534 0.00013878080415045396
0.27344075648766775 0.00014015411612115664
0.27734705300892015 0.00014183260852979323
0.28125334953017256 0.00014366369115739681
0.2851596460514249 0.00014564736400396735
0.2890659425726773 0.00014763103685053788
0.2929722390939297 0.0001496147096971084
0.2968785356151821 0.00015144579232471197
0.30078483213643453 0.0001531242847333486
0.30469112865768694 0.00015465018692301823
0.3085974251789393 0.0001560234988937209
0.3125037217001917 0.00015724422064545662
0.3164100182214441 0.00015831235217822538
0.3203163147426965 0.00015938048371099412
0.3242226112639489 0.00016029602502479594
0.3281289077852013 0.0001612115663385977
0.33203520430645367 0.00016197451743343253
0.3359415008277061 0.00016243228809033341
0.3398477973489585 0.00016273746852826736
0.3437540938702109 0.00016258487830930038
0.3476603903914633 0.0001621271076523995
0.3515666869127157 0.0001612115663385977
0.35547298343396805 0.00015968566414892803
0.35937927995522045 0.00015770199130235753
0.36328557647647286 0.00015541313801785306
0.36719187299772527 0.00015281910429541467
0.37109816951897767 0.00014991989013504235
0.3750044660402301 0.00014686808575570308
0.37891076256148243 0.00014366369115739681
0.38281705908273483 0.0001403067063401236
0.38672335560398724 0.00013679713130388343
0.39062965212523965 0.0001329823758297093
0.39453594864649205 0.00012901503013656827
0.3984422451677444 0.00012474250400549324
0.4023485416889968 0.00012031738765545128
0.4062548382102492 0.0001155870908674754
0.4101611347315016 0.0001108567940794995
0.414067431252754 0.00010597390707255664
0.41797372777400643 0.00010124361028458076
0.4218800242952588 9.651331349660487e-05
0.4257863208165112 9.193560692759596e-05
0.4296926173377636 8.751049057755397e-05
0.433598913859016 8.308537422751201e-05
0.4375052103802684 7.881284809643702e-05
0.4414115069015208 7.454032196536202e-05
0.44531780342277316 7.011520561532006e-05
0.44922409994402557 6.56900892652781e-05
0.453130396465278 6.111238269626917e-05
0.4570366929865304 5.653467612726024e-05
0.4609429895077828 5.180437933928436e-05
0.4648492860290352 4.7074082551308464e-05
0.46875558255028754 4.2496375982299535e-05
0.47266187907153995 3.8071259632257576e-05
0.47656817559279235 3.3798733501182574e-05
0.48047447211404476 2.9678797589074538e-05
0.48438076863529717 2.571145189593347e-05
0.48828706515654957 2.17441062027924e-05
0.4921933616778019 1.7929350728618295e-05
0.4960996581990543 1.4114595254444191e-05
0.5000059547203067 1.014724956130312e-05
0.5039122512415591 6.179903868162052e-06
0.5078185477628115 2.2125581750209816e-06
0.511724844284064 -1.7547875181200885e-06
0.5156311408053164 -5.569542992294193e-06
0.5195374373265688 -9.231708247501335e-06
0.5234437338478211 -1.2741283283741512e-05
0.5273500303690735 -1.6098268101014724e-05
0.5312563268903259 -1.9302662699320976e-05
0.5351626234115783 -2.250705729762722e-05
0.5390689199328307 -2.571145189593347e-05
0.5429752164540831 -2.891584649423972e-05
0.5468815129753355 -3.2272831311512926e-05
0.5507878094965879 -3.562981612878614e-05
0.5546941060178403 -3.8986800946059357e-05
0.5586004025390927 -4.234378576333257e-05
0.5625066990603451 -4.570077058060578e-05
0.5664129955815975 -4.890516517891203e-05
0.5703192921028498 -5.2109559777218284e-05
0.5742255886241022 -5.5161364156557565e-05
0.5781318851453546 -5.8213168535896854e-05
0.582038181666607 -6.111238269626917e-05
0.5859444781878594 -6.401159685664148e-05
0.5898507747091118 -6.691081101701381e-05
0.5937570712303643 -6.981002517738613e-05
0.5976633677516167 -7.270923933775846e-05
0.6015696642728691 -7.576104371709773e-05
0.6054759607941215 -7.881284809643702e-05
0.6093822573153739 -8.18646524757763e-05
0.6132885538366263 -8.49164568551156e-05
0.6171948503578786 -8.78156710154879e-05
0.621101146879131 -9.071488517586022e-05
0.6250074434003834 -9.346150911726559e-05
0.6289137399216358 -9.605554283970399e-05
0.6328200364428882 -9.84969863431754e-05
0.6367263329641406 -0.00010093842984664683
0.640632629485393 -0.00010322728313115129
0.6445389260066454 -0.00010551613641565576
0.6484452225278978 -0.00010795757991912719
0.6523515190491502 -0.00011055161364156557
0.6562578155704026 -0.00011314564736400397
0.6601641120916549 -0.00011589227130540933
0.6640704086129073 -0.00011879148546578164
0.6679767051341597 -0.00012184328984512093
0.6718830016554121 -0.00012489509422446021
0.6757892981766646 -0.00012794689860379948
0.679695594697917 -0.00013099870298313878
0.6836018912191694 -0.0001338979171435111
0.6875081877404218 -0.00013664454108491646
0.6914144842616742 -0.00013923857480735487
0.6953207807829266 -0.00014168001831082628
0.699227077304179 -0.0001441214618142977
0.7031333738254314 -0.00014656290531776914
0.7070396703466837 -0.00014915693904020752
0.7109459668679361 -0.0001517509727626459
0.7148522633891885 -0.0001544975967040513
0.7187585599104409 -0.0001573968108644236
0.7226648564316933 -0.00016029602502479594
0.7265711529529457 -0.00016319523918516824
0.7304774494741981 -0.0001659418631265736
0.7343837459954505 -0.000168535896849012
0.7382900425167029 -0.00017097734035248342
0.7421963390379553 -0.00017341878385595483
0.7461026355592077 -0.00017570763714045928
0.7500089320804602 -0.00017799649042496378
0.7539152286017125 -0.00018028534370946822
0.7578215251229649 -0.0001825741969939727
0.7617278216442173 -0.00018486305027847716
0.7656341181654697 -0.0001871519035629816
0.7695404146867221 -0.00018944075684748608
0.7734467112079745 -0.00019172961013199055
0.7773530077292269 -0.00019401846341649502
0.7812593042504793 -0.00019630731670099947
0.7851656007717317 -0.00019844357976653697
0.7890718972929841 -0.00020057984283207447
0.7929781938142365 -0.00020271610589761197
0.7968844903354888 -0.0002046997787441825
0.8007907868567412 -0.00020668345159075303
0.8046970833779936 -0.0002086671244373236
0.808603379899246 -0.00021049820706492715
0.8125096764204984 -0.00021217669947356374
0.8164159729417508 -0.00021385519188220033
0.8203222694630032 -0.00021553368429083698
0.8242285659842556 -0.00021721217669947357
0.828134862505508 -0.00021889066910811019
0.8320411590267605 -0.00022056916151674678
0.8359474555480129 -0.00022209506370641642
0.8398537520692653 -0.00022362096589608607
0.8437600485905176 -0.00022514686808575572
0.84766634511177 -0.00022667277027542534
0.8515726416330224 -0.00022804608224612802
0.8554789381542748 -0.0002294193942168307
0.8593852346755272 -0.00023094529640650037
0.8632915311967796 -0.00023247119859617
0.867197827718032 -0.00023399710078583964
0.8711041242392844 -0.00023552300297550926
0.8750104207605368 -0.00023720149538414588
0.8789167172817892 -0.0002388799877927825
0.8828230138030416 -0.0002405584802014191
0.8867293103242939 -0.0002422369726100557
0.8906356068455463 -0.00024376287479972535
0.8945419033667987 -0.000245288776989395
0.8984481998880511 -0.0002466620889600977
0.9023544964093035 -0.00024803540093080035
0.906260792930556 -0.00024940871290150303
0.9101670894518084 -0.0002507820248722057
0.9140733859730608 -0.0002521553368429084
0.9179796824943132 -0.00025352864881361106
0.9218859790155656 -0.00025490196078431374
0.925792275536818 -0.00025627527275501636
0.9296985720580704 -0.00025764858472571904
0.9336048685793227 -0.00025902189669642177
0.9375111651005751 -0.0002602426184481575
0.9414174616218275 -0.0002614633401998932
0.9453237581430799 -0.00026283665217059586
0.9492300546643323 -0.00026420996414129854
0.9531363511855847 -0.0002657358663309682
0.9570426477068371 -0.0002674143587396048
0.9609489442280895 -0.00026909285114824137
0.9648552407493419 -0.000270771343556878
0.9687615372705943 -0.0002724498359655146
0.9726678337918467 -0.0002741283283741512
0.9765741303130991 -0.00027580682078278784
0.9804804268343514 -0.0002771801327534905
0.9843867233556038 -0.00027824826428625926
0.9882930198768562 -0.0002790112153810941
0.9921993163981087 -0.000279163805600061
0.9961056129193611 -0.0002784008545052262
1.0000119094406135 -0.00027626459143968875
1.0039182059618659 -0.00027229724574654764
1.0078245024831183 -0.00026588845654993516
1.0117307990043707 -0.00025627527275501636
1.015637095525623 -0.00024269474326695659
1.0195433920468755 -0.00022453650720988787
1.023449688568128 -0.00020119020370794232
1.0273559850893803 -0.00017219806210421913
1.0312622816106327 -0.00013740749217975128
1.0351685781318851 -9.712367437247273e-05
1.0390748746531375 -5.195696955825132e-05
1.04298117117439 -2.975509269855802e-06
1.0468874676956421 4.844739452201114e-05
1.0507937642168945 0.00010032806897077898
1.054700060738147 0.00015098802166781108
1.0586063572593993 0.00019844357976653697
1.0625126537806517 0.00024101625085832
1.0664189503019041 0.00027748531319142446
1.0703252468231566 0.00030708781567101554
1.074231543344409 0.00032982375829709317
1.0781378398656614 0.00034599832150759136
1.0820441363869138 0.0003565270466163119
1.0859504329081662 0.0003624780651560235
1.0898567294294186 0.00036522468909742884
1.093763025950671 0.00036568245975432975
1.0976693224719234 0.0003650720988784619
1.1015756189931758 0.00036385137712672617
1.1054819155144282 0.0003624780651560235
1.1093882120356806 0.0003612573434042878
1.113294508556933 0.00036018921187151904
1.1172008050781854 0.0003591210803387503
1.1211071015994378 0.0003579003585870146
1.1250133981206902 0.0003565270466163119
1.1289196946419426 0.0003548485542076753
1.132825991163195 0.00035271229114213783
1.1367322876844472 0.0003501182574196994
1.1406385842056996 0.0003470664530403601
1.144544880726952 0.00034355687800411994
1.1484511772482044 0.0003394369420920119
1.1523574737694569 0.00033485923552300297
1.1562637702907093 0.0003296711680781262
1.1601700668119617 0.0003240253299763485
1.164076363333214 0.00031792172121766993
1.1679826598544665 0.00031151293202105745
1.1718889563757189 0.00030479896238651104
1.1757952528969713 0.00029793240253299765
1.1797015494182237 0.00029106584267948426
1.183607845939476 0.0002843518730449378
1.1875141424607285 0.0002777904936293584
1.191420438981981 0.0002715342946517128
1.1953267355032333 0.00026543068589303425
1.1992330320244857 0.00025963225757228965
1.2031393285457381 0.0002541390096894789
1.2070456250669905 0.00024879835202563515
1.210951921588243 0.00024361028458075838
1.2148582181094953 0.00023857480735484858
1.2187645146307478 0.0002336919203479057
1.2226708111520002 0.0002289616235599298
1.2265771076732526 0.00022453650720988787
1.2304834041945047 0.00022026398107881284
1.2343897007157572 0.0002162966353856718
1.2382959972370096 0.00021248187991149768
1.242202293758262 0.0002089723048752575
1.2461085902795144 0.00020561532005798427
1.2500148868007668 0.0002022583352407111
1.2539211833220192 0.00019905394064240482
1.2578274798432716 0.00019584954604409858
1.261733776364524 0.00019264515144579235
1.2656400728857764 0.00018944075684748608
1.2695463694070288 0.00018623636224917984
1.2734526659282812 0.00018303196765087358
1.2773589624495336 0.00017967498283360037
1.281265258970786 0.00017616540779736022
1.2851715554920384 0.0001723506523231861
1.2890778520132908 0.0001680781261921111
1.2929841485345432 0.0001633478294041352
1.2968904450557956 0.0001581597619592584
1.300796741577048 0.00015251392385748076
1.3047030380983005 0.00014656290531776914
1.3086093346195529 0.00014045929655909058
1.3125156311408053 0.00013435568780041199
1.3164219276620577 0.0001284046692607004
1.3203282241833099 0.0001227588311589227
1.3242345207045623 0.00011757076371404593
1.3281408172258147 0.00011284046692607004
1.332047113747067 0.00010872053101396201
1.3359534102683195 0.00010536354619668879
1.339859706789572 0.0001027695124742504
1.3437660033108243 0.0001010910200656138
1.3476722998320767 0.00010017547875181202
1.351578596353329 0.00010002288853284505
1.3554848928745815 0.0001006332494087129
1.359391189395834 0.00010185397116044861
1.3632974859170863 0.00010353246356908523
1.3672037824383387 0.00010566872663462272
1.3711100789595911 0.00010811017013809416
1.3750163754808435 0.00011070420386053254
1.378922672002096 0.0001134508278019379
1.3828289685233484 0.00011635004196231022
1.3867352650446008 0.00011924925612268255
1.3906415615658532 0.00012214847028305486
1.3945478580871056 0.00012504768444342718
1.398454154608358 0.0001277943083848325
1.4023604511296104 0.00013038834210727092
1.4062667476508628 0.00013282978561074237
1.410173044172115 0.00013496604867627984
1.4140793406933674 0.00013679713130388343
1.4179856372146198 0.00013847562371252005
1.4218919337358722 0.00013984893568322272
1.4257982302571246 0.00014091706721599146
1.429704526778377 0.00014168001831082628
1.4336108232996294 0.00014213778896772717
1.4375171198208818 0.0001424429694056611
1.4414234163421342 0.0001424429694056611
1.4453297128633866 0.00014213778896772717
1.449236009384639 0.00014137483787289234
1.4531423059058914 0.0001403067063401236
1.4570486024271438 0.00013878080415045396
1.4609548989483963 0.00013679713130388343
1.4648611954696487 0.00013450827801937896
1.468767491990901 0.0001317616540779736
1.4726737885121535 0.0001287098496986343
1.4765800850334059 0.0001253528648813611
1.4804863815546583 0.00012169069962615396
1.4843926780759107 0.00011787594415197986
1.488298974597163 0.0001139085984588388
1.4922052711184155 0.00010978866254673075
1.496111567639668 0.00010566872663462272
1.5000178641609203 0.00010139620050354773
1.5039241606821725 9.712367437247273e-05
1.507830457203425 9.269855802243077e-05
1.5117367537246773 8.827344167238881e-05
1.5156430502459297 8.384832532234683e-05
1.5195493467671821 7.92706187533379e-05
1.5234556432884345 7.454032196536202e-05
1.527361939809687 6.981002517738613e-05
1.5312682363309393 6.507972838941025e-05
1.5351745328521917 6.0196841382467385e-05
1.5390808293734441 5.531395437552453e-05
1.5429871258946966 5.043106736858167e-05
1.546893422415949 4.570077058060578e-05
1.5507997189372014 4.0970473792629894e-05
1.5547060154584538 3.639276722362097e-05
1.5586123119797062 3.1967650873579e-05
1.5625186085009586 2.7695124742504004e-05
1.566424905022211 2.3727779049362935e-05
1.5703312015434634 1.991302357518883e-05
1.5742374980647158 1.6098268101014727e-05
1.5781437945859682 1.228351262684062e-05
1.5820500911072206 8.468757152666515e-06
1.585956387628473 4.654001678492408e-06
1.5898626841497254 6.866559853513392e-07
1.5937689806709776 -3.2806897077897306e-06
1.59767527719223 -7.095445181963836e-06
1.6015815737134824 -1.0910200656137941e-05
1.6054878702347348 -1.4572365911345083e-05
1.6093941667559872 -1.8081940947585258e-05
1.6133004632772396 -2.1438925764858474e-05
1.617206759798492 -2.4643320363164722e-05
1.6211130563197444 -2.7695124742504004e-05
1.6250193528409969 -3.074692912184329e-05
1.6289256493622493 -3.3798733501182574e-05
1.6328319458835017 -3.685053788052186e-05
1.636738242404754 -3.9902342259861144e-05
1.6406445389260065 -4.2954146639200425e-05
1.6445508354472589 -4.6005951018539714e-05
1.6484571319685113 -4.9057755397878995e-05
1.6523634284897637 -5.195696955825132e-05
1.656269725011016 -5.485618371862364e-05
1.6601760215322685 -5.760280766002899e-05
1.664082318053521 -6.0196841382467385e-05
1.6679886145747733 -6.279087510490578e-05
1.6718949110960257 -6.538490882734417e-05
1.6758012076172781 -6.797894254978256e-05
1.6797075041385305 -7.057297627222096e-05
1.6836138006597827 -7.316700999465934e-05
1.6875200971810351 -7.59136339360647e-05
1.6914263937022875 -7.866025787747005e-05
1.69533269022354 -8.155947203784238e-05
1.6992389867447923 -8.461127641718166e-05
1.7031452832660448 -8.766308079652094e-05
1.7070515797872972 -9.071488517586022e-05
1.7109578763085496 -9.376668955519952e-05
1.714864172829802 -9.68184939345388e-05
1.7187704693510544 -9.971770809491112e-05
1.7226767658723068 -0.00010246433203631646
1.7265830623935592 -0.00010505836575875486
1.7304893589148116 -0.0001074998092622263
1.734395655436064 -0.00010978866254673075
1.7383019519573164 -0.00011207751583123522
1.7422082484785688 -0.00011436636911573968
1.7461145449998212 -0.0001168078126192111
1.7500208415210736 -0.0001194018463416495
1.753927138042326 -0.00012214847028305486
1.7578334345635784 -0.00012504768444342718
1.7617397310848308 -0.00012794689860379948
1.7656460276060832 -0.00013099870298313878
1.7695523241273357 -0.00013405050736247807
1.7734586206485878 -0.0001369497215228504
1.7773649171698402 -0.00013984893568322272
1.7812712136910926 -0.00014259555962462805
1.785177510212345 -0.00014518959334706646
1.7890838067335975 -0.00014778362706950485
1.7929901032548499 -0.00015037766079194323
1.7968963997761023 -0.00015297169451438164
1.8008026962973547 -0.00015556572823682003
1.804708992818607 -0.00015831235217822538
1.8086152893398595 -0.00016105897611963074
1.812521585861112 -0.00016395819028000306
1.8164278823823643 -0.00016685740444037536
1.8203341789036167 -0.0001697566186007477
1.8242404754248691 -0.00017250324254215304
1.8281467719461215 -0.00017509727626459142
1.832053068467374 -0.00017769130998702984
1.8359593649886263 -0.00018028534370946822
1.8398656615098787 -0.0001828793774319066
1.8437719580311311 -0.00018547341115434502
1.8476782545523835 -0.0001880674448767834
1.851584551073636 -0.0001906614785992218
1.8554908475948884 -0.0001932555123216602
1.8593971441161408 -0.00019584954604409858
1.8633034406373932 -0.00019844357976653697
1.8672097371586454 -0.0002008850232700084
1.8711160336798978 -0.00020317387655451285
1.8750223302011502 -0.00020546272983901733
1.8789286267224026 -0.00020759899290455483
1.882834923243655 -0.00020973525597009233
1.8867412197649074 -0.00021187151903562983
1.8906475162861598 -0.0002140077821011673
1.8945538128074122 -0.00021614404516670483
1.8984601093286646 -0.00021828030823224233
1.902366405849917 -0.0002204165712977798
1.9062727023711694 -0.00022240024414435034
1.9101789988924218 -0.0002243839169909209
1.9140852954136742 -0.00022621499961852446
1.9179915919349266 -0.00022789349202716105
1.921897888456179 -0.00022957198443579767
1.9258041849774314 -0.00023125047684443428
1.9297104814986838 -0.00023308155947203784
1.9336167780199363 -0.00023506523231860837
1.9375230745411887 -0.00023720149538414588
1.941429371062441 -0.00023933775844968338
1.9453356675836935 -0.00024147402151522088
1.9492419641049459 -0.00024361028458075838
1.9531482606261983 -0.0002455939574273289
1.9570545571474505 -0.00024742504005493247
1.9609608536687029 -0.0002491035324635691
1.9648671501899553 -0.00025047684443427177
1.9687734467112077 -0.0002516975661860075
1.97267974323246 -0.0002527656977187762
1.9765860397537125 -0.00025383382925154495
1.980492336274965 -0.00025490196078431374
1.9843986327962173 -0.0002559700923170825
1.9883049293174697 -0.0002571908140688182
1.9922112258387221 -0.00025841153582055395
1.9961175223599745 -0.00025963225757228965
2.000023818881227 -0.00026100556954299233
2.003930115402479 -0.000262378881513695
2.0078364119237317 -0.0002635996032654307
2.011742708444984 -0.0002648203250171664
2.0156490049662366 -0.00026588845654993516
2.0195553014874887 -0.0002668039978637369
2.0234615980087414 -0.0002675669489585718
2.0273678945299936 -0.0002681773098344396
2.031274191051246 -0.0002687876707103075
2.0351804875724984 -0.0002695506218051423
2.039086784093751 -0.0002703135728999771
2.042993080615003 -0.0002712291142137789
2.046899377136256 -0.00027214465552758066
2.050805673657508 -0.0002732127870603494
2.0547119701787606 -0.0002742809185931182
2.058618266700013 -0.00027534905012588693
2.0625245632212654 -0.0002764171816586557
2.0664308597425176 -0.00027748531319142446
2.0703371562637702 -0.0002785534447241932
2.0742434527850224 -0.00027946898603799496
2.078149749306275 -0.0002803845273517968
2.0820560458275272 -0.0002814526588845655
2.08596234234878 -0.00028252079041733426
2.089868638870032 -0.000283588921950103
2.0937749353912842 -0.00028465705348287173
2.097681231912537 -0.00028572518501564047
2.101587528433789 -0.00028679331654840926
2.1054938249550417 -0.000287861448081178
2.109400121476294 -0.00028892957961394673
2.1133064179975465 -0.0002901503013656825
2.1172127145187987 -0.0002913710231174182
2.1211190110400513 -0.0002927443350881209
2.1250253075613035 -0.00029427023727779053
2.128931604082556 -0.0002957961394674601
2.1328379006038083 -0.00029732204165712977
2.136744197125061 -0.0002988479438467994
2.140650493646313 -0.00030037384603646906
2.1445567901675657 -0.00030174715800717174
2.148463086688818 -0.00030296787975890745
2.1523693832100705 -0.00030418860151064316
2.1562756797313227 -0.0003054093232623789
2.1601819762525754 -0.0003066300450141146
2.1640882727738275 -0.00030769817654688336
2.16799456929508 -0.00030861371786068513
2.1719008658163323 -0.00030907148851758604
2.175807162337585 -0.0003087663080796521
2.179713458858837 -0.00030708781567101554
2.1836197553800893 -0.0003035782406347753
2.187526051901342 -0.00029747463187609674
2.191432348422594 -0.00028801403830014497
2.195338644943847 -0.0002742809185931182
2.199244941465099 -0.00025566491187914854
2.2031512379863516 -0.00023140306706340125
2.207057534507604 -0.00020103761348897538
2.2109638310288564 -0.00016426337071793698
2.2148701275501086 -0.00012123292896925308
2.218776424071361 -7.255664911879149e-05
2.2226827205926134 -1.945525291828794e-05
2.226589017113866 3.639276722362097e-05
2.230495313635118 9.300373846036469e-05
2.234401610156371 0.00014824139772640573
2.238307906677623 0.00019981689173723965
2.2422142031988757 0.0002458991378652628
2.246120499720128 0.00028496223392080567
2.2500267962413805 0.0003160906385900664
2.2539330927626327 0.0003394369420920119
2.2578393892838853 0.0003553063248645762
2.2617456858051375 0.0003649195086594949
2.26565198232639 0.00036964980544747087
2.2695582788476423 0.0003708705271992066
2.2734645753688945 0.00036995498588540476
2.277370871890147 0.0003681239032578012
2.2812771684113993 0.00036598764019226364
2.285183464932652 0.00036400396734569314
2.289089761453904 0.0003623254749370565
2.2929960579751567 0.00036079957274738687
2.296902354496409 0.0003592736705577173
2.3008086510176615 0.00035774776836804763
2.3047149475389137 0.00035591668574044404
2.3086212440601663 0.00035378042267490657
2.3125275405814185 0.0003513389791714351
2.316433837102671 0.00034859235523002974
2.3203401336239233 0.00034538796063172353
2.324246430145176 0.0003418783855954833
2.328152726666428 0.00033806363012130924
2.3320590231876808 0.0003339436942092012
2.335965319708933 0.00032951857785915923
2.3398716162301856 0.00032478828107118337
2.3437779127514378 0.00031960021362630655
2.3476842092726904 0.00031410696574349584
2.3515905057939426 0.0003084611276417182
2.355496802315195 0.0003026626993209735
2.3594030988364474 0.00029671168078126194
2.3633093953577 0.0002907606622415503
2.367215691878952 0.00028496223392080567
2.3711219884002044 0.000279316395819028
2.375028284921457 0.0002739757381551843
2.378934581442709 0.0002687876707103075
2.382840877963962 0.0002637521934843977
2.386747174485214 0.00025902189669642177
2.3906534710064666 0.00025444419012741283
2.394559767527719 0.00025001907377737086
2.3984660640489714 0.0002455939574273289
2.4023723605702236 0.0002413214312962539
2.4062786570914763 0.00023735408560311285
2.4101849536127284 0.0002336919203479057
2.414091250133981 0.0002303349355306325
2.4179975466552333 0.00022713054093232625
2.421903843176486 0.00022407873655298696
2.425810139697738 0.0002213321126115816
2.4297164362189907 0.00021873807888914322
2.433622732740243 0.00021614404516670483
2.4375290292614955 0.0002137026016632334
2.4414353257827477 0.00021141374837872892
2.4453416223040003 0.00020927748531319144
2.4492479188252525 0.00020714122224765394
2.453154215346505 0.00020515754940108338
2.4570605118677573 0.00020317387655451285
2.4609668083890095 0.00020119020370794232
2.464873104910262 0.00019905394064240482
2.4687794014315143 0.00019676508735790035
2.472685697952767 0.00019432364385442894
2.476591994474019 0.00019157701991302358
2.4804982909952717 0.00018852521553368429
2.484404587516524 0.00018516823071641108
2.4883108840377766 0.00018135347524223696
2.4922171805590287 0.00017708094911116198
2.4961234770802814 0.00017250324254215304
2.5000297736015336 0.00016762035553521018
2.503936070122786 0.00016258487830930038
2.5078423666440384 0.0001573968108644236
2.511748663165291 0.0001523613336385138
2.515654959686543 0.00014763103685053788
2.519561256207796 0.00014335851071946287
2.523467552729048 0.00013969634546425575
2.5273738492503006 0.00013664454108491648
2.531280145771553 0.00013420309758144502
2.5351864422928054 0.00013237201495384145
2.5390927388140576 0.00013099870298313878
2.5429990353353102 0.000130083161669337
2.5469053318565624 0.00012947280079346916
2.5508116283778146 0.00012916762035553522
2.5547179248990672 0.00012916762035553522
2.5586242214203194 0.0001293202105745022
2.562530517941572 0.00012977798123140307
2.5664368144628242 0.00013038834210727092
2.570343110984077 0.00013115129320210575
2.574249407505329 0.00013206683451590754
2.5781557040265817 0.0001329823758297093
2.582062000547834 0.0001338979171435111
2.5859682970690865 0.00013481345845731287
2.5898745935903387 0.0001355764095521477
2.5937808901115913 0.00013618677042801555
2.5976871866328435 0.00013664454108491648
2.601593483154096 0.0001369497215228504
2.6054997796753483 0.00013710231174181737
2.609406076196601 0.00013725490196078434
2.613312372717853 0.00013725490196078434
2.6172186692391057 0.00013710231174181737
2.621124965760358 0.00013679713130388343
2.6250312622816105 0.0001364919508659495
2.6289375588028627 0.0001360341802090486
2.6328438553241154 0.00013542381933318075
2.6367501518453675 0.00013466086823834593
2.6406564483666197 0.00013359273670557716
2.6445627448878724 0.00013237201495384145
2.6484690414091245 0.00013084611276417183
2.652375337930377 0.00012901503013656827
2.6562816344516293 0.00012687876707103075
2.660187930972882 0.00012443732356755933
2.664094227494134 0.00012184328984512093
2.668000524015387 0.00011909666590371558
2.671906820536639 0.00011619745174334325
2.6758131170578916 0.00011314564736400397
2.679719413579144 0.00010994125276569772
2.6836257101003964 0.00010658426794842451
2.6875320066216486 0.00010322728313115129
2.6914383031429012 9.971770809491112e-05
2.6953445996641534 9.605554283970399e-05
2.699250896185406 9.224078736552988e-05
2.703157192706658 8.827344167238881e-05
2.707063489227911 8.430609597924773e-05
2.710969785749163 8.033875028610667e-05
2.7148760822704157 7.63714045929656e-05
2.718782378791668 7.240405889982453e-05
2.7226886753129205 6.843671320668346e-05
2.7265949718341727 6.44693675135424e-05
2.730501268355425 6.0654612039368275e-05
2.7344075648766775 5.683985656519417e-05
2.7383138613979296 5.28725108720531e-05
2.7422201579191823 4.890516517891203e-05
2.7461264544404345 4.4785229266804e-05
2.750032750961687 4.066529335469597e-05
2.7539390474829393 3.6545357442587935e-05
2.757845344004192 3.227283131151293e-05
2.761751640525444 2.8000305180437937e-05
2.7656579370466967 2.3727779049362935e-05
2.769564233567949 1.9302662699320976e-05
2.7734705300892015 1.4877546349279013e-05
2.7773768266104537 1.0605020218204014e-05
2.7812831231317063 6.485084306095979e-06
2.7851894196529585 2.5177386129549097e-06
2.789095716174211 -1.2970168612191955e-06
2.7930020126954633 -5.111772335393301e-06
2.796908309216716 -8.773937590600443e-06
2.800814605737968 -1.228351262684062e-05
2.8047209022592208 -1.5793087663080797e-05
2.808627198780473 -1.9150072480354012e-05
2.8125334953017256 -2.250705729762722e-05
2.8164397918229778 -2.5864042114900433e-05
2.82034608834423 -2.9221026932173648e-05
2.8242523848654826 -3.2578011749446866e-05
2.8281586813867348 -3.593499656672007e-05
2.8320649779079874 -3.913939116502632e-05
2.8359712744292396 -4.219119554436561e-05
2.839877570950492 -4.524299992370489e-05
2.8437838674717444 -4.8142214084077215e-05
2.847690163992997 -5.104142824444953e-05
2.851596460514249 -5.378805218585489e-05
2.855502757035502 -5.653467612726024e-05
2.859409053556754 -5.92813000686656e-05
2.8633153500780066 -6.202792401007095e-05
2.867221646599259 -6.492713817044328e-05
2.8711279431205114 -6.797894254978256e-05
2.8750342396417636 -7.103074692912184e-05
2.8789405361630163 -7.423514152742809e-05
2.8828468326842684 -7.743953612573434e-05
2.886753129205521 -8.06439307240406e-05
2.8906594257267733 -8.384832532234683e-05
2.894565722248026 -8.690012970168612e-05
2.898472018769278 -8.979934386205844e-05
2.9023783152905307 -9.254596780346381e-05
2.906284611811783 -9.514000152590218e-05
2.910190908333035 -9.758144502937362e-05
2.9140972048542877 -0.00010002288853284505
2.91800350137554 -0.00010246433203631646
2.9219097978967925 -0.0001049057755397879
2.9258160944180447 -0.0001074998092622263
2.9297223909392973 -0.00011024643320363165
2.9336286874605495 -0.000112993057145037
2.937534983981802 -0.00011589227130540933
2.9414412805030543 -0.00011879148546578164
2.945347577024307 -0.00012184328984512093
2.949253873545559 -0.00012474250400549324
2.9531601700668118 -0.00012764171816586557
2.957066466588064 -0.00013038834210727092
2.9609727631093166 -0.0001329823758297093
2.9648790596305687 -0.0001355764095521477
2.9687853561518214 -0.0001381704432745861
2.9726916526730736 -0.0001407644769970245
2.976597949194326 -0.00014351110093842984
2.9805042457155784 -0.00014625772487983523
2.984410542236831 -0.00014900434882124055
2.988316838758083 -0.0001517509727626459
2.992223135279336 -0.0001544975967040513
2.996129431800588 -0.00015724422064545662
3.0000357283218406 -0.00015999084458686197
3.003942024843093 -0.00016258487830930038
3.007848321364345 -0.00016517891203173877
3.0117546178855976 -0.00016777294575417715
3.01566091440685 -0.00017036697947661557
3.0195672109281024 -0.00017280842298008698
3.0234735074493546 -0.0001752498664835584
3.0273798039706072 -0.00017769130998702984
3.0312861004918594 -0.00018013275349050125
3.035192397013112 -0.0001825741969939727
3.0390986935343642 -0.00018486305027847716
3.043004990055617 -0.0001871519035629816
3.046911286576869 -0.00018944075684748608
3.0508175830981217 -0.00019172961013199055
3.054723879619374 -0.00019401846341649502
3.0586301761406265 -0.00019630731670099947
3.0625364726618787 -0.00019844357976653697
3.0664427691831313 -0.00020057984283207447
3.0703490657043835 -0.00020271610589761197
3.074255362225636 -0.00020485236896314947
3.0781616587468883 -0.00020698863202868695
3.082067955268141 -0.00020912489509422447
3.085974251789393 -0.00021126115815976198
3.0898805483106457 -0.00021339742122529945
3.093786844831898 -0.00021553368429083698
3.09769314135315 -0.00021766994735637445
3.1015994378744027 -0.00021965362020294498
3.105505734395655 -0.00022148470283054854
3.1094120309169075 -0.0002231631952391852
3.1133183274381597 -0.0002246890974288548
3.1172246239594124 -0.00022621499961852446
3.1211309204806645 -0.0002277409018081941
3.125037217001917 -0.00022926680399786372
3.1289435135231694 -0.0002307927061875334
3.132849810044422 -0.00023247119859617
3.136756106565674 -0.00023430228122377355
3.140662403086927 -0.00023613336385137714
3.144568699608179 -0.0002379644464789807
3.1484749961294316 -0.00023964293888761732
3.152381292650684 -0.00024116884107728697
3.1562875891719364 -0.00024254215304798962
3.1601938856931886 -0.0002439154650186923
3.1641001822144412 -0.00024513618677042803
3.1680064787356934 -0.00024635690852216373
3.171912775256946 -0.00024757763027389944
3.175819071778198 -0.0002489509422446021
3.179725368299451 -0.00025047684443427177
3.183631664820703 -0.0002520027466239414
3.187537961341955 -0.00025352864881361106
3.191444257863208 -0.00025505455100328066
3.19535055438446 -0.00025642786297398333
3.1992568509057127 -0.00025764858472571904
3.203163147426965 -0.0002587167162584879
3.2070694439482175 -0.0002597848477912566
3.2109757404694697 -0.0002607003891050584
3.2148820369907223 -0.00026161593041886016
3.2187883335119745 -0.000262531471732662
3.222694630033227 -0.00026344701304646374
3.2266009265544793 -0.0002645151445792325
3.230507223075732 -0.0002657358663309682
3.234413519596984 -0.0002669565880827039
3.2383198161182367 -0.0002681773098344396
3.242226112639489 -0.00026924544136720834
3.2461324091607415 -0.00027016098268101016
3.2500387056819937 -0.00027092393377584496
3.2539450022032463 -0.00027168688487067975
3.2578512987244985 -0.0002724498359655146
3.261757595245751 -0.0002732127870603494
3.2656638917670033 -0.0002739757381551843
3.269570188288256 -0.0002747386892500191
3.273476484809508 -0.00027565423056382087
3.2773827813307603 -0.0002767223620965896
3.281289077852013 -0.0002777904936293584
3.285195374373265 -0.00027885862516212714
3.2891016708945178 -0.0002799267566948959
3.29300796741577 -0.00028084229800869764
3.2969142639370226 -0.0002817578393224994
3.3008205604582748 -0.00028267338063630123
3.3047268569795274 -0.00028374151216906997
3.3086331535007796 -0.0002848096437018387
3.312539450022032 -0.0002860303654535744
3.3164457465432844 -0.0002872510872053101
3.320352043064537 -0.0002884718089570458
3.324258339585789 -0.0002896925307087816
3.328164636107042 -0.0002909132524605173
3.332070932628294 -0.00029198138399328603
3.3359772291495466 -0.0002930495155260548
3.339883525670799 -0.0002939650568398566
3.3437898221920515 -0.00029488059815365835
3.3476961187133036 -0.0002957961394674601
3.3516024152345563 -0.00029671168078126194
3.3555087117558084 -0.0002977798123140307
3.359415008277061 -0.0002990005340657664
3.3633213047983133 -0.00030037384603646906
3.3672276013195654 -0.0003020523384451057
3.371133897840818 -0.0003038834210727092
3.3750401943620703 -0.00030586709391927983
3.378946490883323 -0.0003080033569848173
3.382852787404575 -0.0003101396200503548
3.3867590839258277 -0.0003122758831158923
3.39066538044708 -0.0003142595559624628
3.3945716769683325 -0.0003160906385900664
3.3984779734895847 -0.00031776913099870296
3.4023842700108373 -0.00031914244296940564
3.4062905665320895 -0.00032036316472114134
3.410196863053342 -0.00032143129625391014
3.4141031595745943 -0.000322194247348745
3.418009456095847 -0.00032249942778667893
3.421915752617099 -0.00032234683756771196
3.4258220491383518 -0.00032112611581597625
3.429728345659604 -0.00031837949187457084
3.4336346421808566 -0.000313496604867628
3.4375409387021088 -0.0003055619134813459
3.4414472352233614 -0.0002935072861829557
3.4453535317446136 -0.0002764171816586557
3.449259828265866 -0.0002533760585946441
3.4531661247871184 -0.00022377355611505304
3.4570724213083706 -0.00018730449378194858
3.460978717829623 -0.00014396887159533073
3.4648850143508754 -9.452964065003433e-05
3.468791310872128 -4.005493247882811e-05
3.47269760739338 1.7471580071717405e-05
3.476603903914633 7.59136339360647e-05
3.480510200435885 0.00013282978561074237
3.4844164969571376 0.00018577859159227896
3.48832279347839 0.00023277637903410393
3.4922290899996424 0.00027229724574654764
3.4961353865208946 0.0003034256504158083
3.5000416830421472 0.0003260090028229191
3.5039479795633994 0.0003406576638437476
3.507854276084652 0.00034859235523002974
3.5117605726059042 0.0003513389791714351
3.515666869127157 0.00035057602807660025
3.519573165648409 0.000347676813916228
3.5234794621696617 0.0003438620584420539
3.527385758690914 0.0003398947127489128
3.5312920552121665 0.00033607995727473873
3.5351983517334187 0.0003328755626764324
3.5391046482546713 0.0003301289387350271
3.5430109447759235 0.0003275349050125887
3.5469172412971757 0.00032494087129015034
3.5508235378184283 0.000322194247348745
3.5547298343396805 0.0003192950331883726
3.558636130860933 0.0003160906385900664
3.5625424273821853 0.0003125810635538262
3.566448723903438 0.00030861371786068513
3.57035502042469 0.0003043411917296101
3.5742613169459427 0.0002996108949416342
3.578167613467195 0.0002945754177157244
3.5820739099884475 0.00028923476005188073
3.5859802065096997 0.000283588921950103
3.5898865030309524 0.00027763790341039143
3.5937927995522045 0.0002715342946517128
3.597699096073457 0.0002652780956740673
3.6016053925947094 0.00025902189669642177
3.605511689115962 0.00025261310749980924
3.609417985637214 0.00024635690852216373
3.613324282158467 0.0002401007095445182
3.617230578679719 0.00023399710078583964
3.6211368752009716 0.00022789349202716105
3.625043171722224 0.00022194247348744945
3.6289494682434764 0.00021614404516670483
3.6328557647647286 0.00021049820706492715
3.636762061285981 0.00020500495918211641
3.6406683578072334 0.00019981689173723965
3.6445746543284856 0.0001949340047302968
3.6484809508497382 0.00019035629816128785
3.6523872473709904 0.00018608377203021287
3.656293543892243 0.00018211642633707178
3.660199840413495 0.00017845426108186466
3.664106136934748 0.00017494468604562448
3.668012433456 0.00017158770122835127
3.6719187299772527 0.00016838330663004503
3.675825026498505 0.00016533150225070574
3.6797313230197575 0.00016258487830930038
3.6836376195410097 0.00015999084458686197
3.6875439160622623 0.00015770199130235753
3.6914502125835145 0.000155718318455787
3.695356509104767 0.00015403982604715038
3.6992628056260193 0.0001526665140764477
3.703169102147272 0.00015159838254367894
3.707075398668524 0.0001505302510109102
3.7109816951897767 0.0001493095292591745
3.714887991711029 0.00014778362706950485
3.7187942882322815 0.00014579995422293432
3.7227005847535337 0.00014335851071946287
3.7266068812747863 0.0001403067063401236
3.7305131777960385 0.00013679713130388343
3.7344194743172907 0.00013282978561074237
3.7383257708385433 0.00012855725947966734
3.7422320673597955 0.00012397955291065842
3.746138363881048 0.00011924925612268255
3.7500446604023003 0.00011451895933470665
3.753950956923553 0.00010994125276569772
3.757857253444805 0.00010566872663462272
3.7617635499660578 0.00010185397116044861
3.76566984648731 9.834439612420843e-05
3.7695761430085626 9.529259174486915e-05
3.7734824395298148 9.285114824139774e-05
3.7773887360510674 9.086747539482719e-05
3.7812950325723196 8.949416342412451e-05
3.785201329093572 8.87312123292897e-05
3.7891076256148244 8.842603189135578e-05
3.793013922136077 8.857862211032273e-05
3.796920218657329 8.918898298619059e-05
3.800826515178582 9.010452429999237e-05
3.804732811699834 9.117265583276112e-05
3.8086391082210866 9.239337758449684e-05
3.812545404742339 9.376668955519952e-05
3.8164517012635915 9.529259174486915e-05
3.8203579977848436 9.68184939345388e-05
3.824264294306096 9.84969863431754e-05
3.8281705908273485 0.00010017547875181202
3.8320768873486006 0.00010185397116044861
3.8359831838698533 0.00010353246356908523
3.8398894803911054 0.00010521095597772183
3.843795776912358 0.00010673685816739147
3.8477020734336103 0.00010811017013809416
3.851608369954863 0.0001091783016708629
3.855514666476115 0.00011009384298466469
3.8594209629973677 0.00011070420386053254
3.86332725951862 0.00011116197451743343
3.8672335560398725 0.00011131456473640041
3.8711398525611247 0.00011131456473640041
3.8750461490823773 0.00011100938429846647
3.8789524456036295 0.00011055161364156557
3.882858742124882 0.00010978866254673075
3.8867650386461343 0.00010887312123292897
3.890671335167387 0.00010780498970016023
3.894577631688639 0.00010643167772945754
3.8984839282098918 0.00010475318532082094
3.902390224731144 0.00010292210269321736
3.9062965212523966 0.00010078583962767987
3.9102028177736488 9.834439612420843e-05
3.914109114294901 9.559777218280308e-05
3.9180154108161536 9.269855802243077e-05
3.9219217073374057 8.949416342412451e-05
3.9258280038586584 8.61371786068513e-05
3.9297343003799106 8.247501335164416e-05
3.933640596901163 7.866025787747005e-05
3.9375468934224154 7.484550240329595e-05
3.941453189943668 7.103074692912184e-05
3.94535948646492 6.721599145494774e-05
3.949265782986173 6.340123598077363e-05
3.953172079507425 5.958648050659953e-05
3.9570783760286776 5.5771725032425426e-05
3.96098467254993 5.2109559777218284e-05
3.9648909690711824 4.844739452201114e-05
3.9687972655924346 4.4785229266804e-05
3.9727035621136872 4.112306401159686e-05
3.9766098586349394 3.7460898756389716e-05
3.980516155156192 3.364614328221561e-05
3.9844224516774442 2.9831387808041508e-05
3.988328748198697 2.60166323338674e-05
3.992235044719949 2.2201876859693294e-05
3.9961413412412017 1.838712138551919e-05
4.000047637762454 1.4572365911345083e-05
4.0039539342837065 1.0757610437170978e-05
4.007860230804958 7.095445181963836e-06
4.011766527326211 3.4332799267566952e-06
4.0156728238474635 -2.2888532845044606e-07
4.019579120368716 -3.7384603646906233e-06
4.023485416889968 -7.2480354009308e-06
4.0273917134112205 -1.0757610437170978e-05
4.031298009932473 -1.4267185473411155e-05
4.035204306453726 -1.777676050965133e-05
4.0391106029749775 -2.128633554589151e-05
4.04301689949623 -2.4643320363164722e-05
4.046923196017483 -2.8000305180437937e-05
4.050829492538735 -3.120469977874418e-05
4.054735789059987 -3.425650415808347e-05
4.05864208558124 -3.730830853742275e-05
4.062548382102492 -4.036011291676204e-05
4.066454678623745 -4.325932707713436e-05
4.070360975144997 -4.615854123750668e-05
4.074267271666249 -4.9057755397878995e-05
4.078173568187502 -5.195696955825132e-05
4.082079864708755 -5.485618371862364e-05
4.085986161230006 -5.760280766002899e-05
4.089892457751259 -6.034943160143435e-05
4.093798754272512 -6.294346532387273e-05
4.097705050793763 -6.553749904631113e-05
4.101611347315016 -6.813153276874952e-05
4.105517643836269 -7.057297627222096e-05
4.109423940357521 -7.301441977569239e-05
4.113330236878773 -7.54558632791638e-05
4.117236533400026 -7.789730678263524e-05
4.121142829921278 -8.049134050507363e-05
4.125049126442531 -8.308537422751201e-05
4.128955422963783 -8.583199816891738e-05
4.132861719485035 -8.857862211032273e-05
4.136768016006288 -9.132524605172808e-05
4.1406743125275405 -9.407186999313344e-05
4.144580609048792 -9.68184939345388e-05
4.148486905570045 -9.941252765697718e-05
4.1523932020912975 -0.00010200656137941558
4.15629949861255 -0.00010444800488288701
4.160205795133802 -0.00010688944838635844
4.1641120916550545 -0.00010933089188982987
4.168018388176307 -0.00011161974517433434
4.17192468469756 -0.0001139085984588388
4.1758309812188115 -0.00011619745174334325
4.179737277740064 -0.00011848630502784771
4.183643574261317 -0.00012077515831235218
4.1875498707825685 -0.00012306401159685663
4.191456167303821 -0.00012520027466239415
4.195362463825074 -0.00012733653772793163
4.199268760346326 -0.00012947280079346916
4.203175056867578 -0.00013160906385900666
4.207081353388831 -0.00013374532692454413
4.210987649910083 -0.0001360341802090486
4.214893946431336 -0.00013832303349355307
4.218800242952588 -0.00014061188677805752
4.22270653947384 -0.00014305333028152896
4.226612835995093 -0.0001454947737850004
4.230519132516346 -0.00014793621728847182
4.234425429037597 -0.00015037766079194323
4.23833172555885 -0.0001526665140764477
4.242238022080103 -0.00015495536736095217
4.246144318601355 -0.00015724422064545662
4.250050615122607 -0.0001595330739299611
4.25395691164386 -0.0001616693369954986
4.257863208165112 -0.0001638056000610361
4.261769504686365 -0.0001659418631265736
4.265675801207617 -0.00016823071641107806
4.269582097728869 -0.0001705195696955825
4.273488394250122 -0.00017265583276112
4.277394690771374 -0.0001747920958266575
4.281300987292626 -0.00017677576867322807
4.285207283813879 -0.0001787594415197986
4.2891135803351315 -0.00018059052414740216
4.293019876856383 -0.00018242160677500572
4.296926173377636 -0.0001842526894026093
4.3008324698988885 -0.00018608377203021287
4.304738766420141 -0.00018791485465781643
4.308645062941393 -0.00018974593728542
4.3125513594626455 -0.00019157701991302358
4.316457655983898 -0.00019340810254062717
4.320363952505151 -0.00019523918516823073
4.3242702490264024 -0.0001970702677958343
4.328176545547655 -0.00019890135042343785
4.332082842068908 -0.00020073243305104144
4.33598913859016 -0.000202563515678645
4.339895435111412 -0.00020454718852521553
4.343801731632665 -0.00020653086137178606
4.347708028153917 -0.00020851453421835662
4.35161432467517 -0.00021034561684596018
4.355520621196422 -0.00021202410925459677
4.359426917717674 -0.0002137026016632334
4.363333214238927 -0.00021522850385290304
4.367239510760179 -0.00021660181582360571
4.371145807281431 -0.00021782253757534142
4.375052103802684 -0.00021904325932707713
4.378958400323937 -0.0002201113908598459
4.382864696845188 -0.00022117952239261463
4.386770993366441 -0.00022240024414435034
4.390677289887694 -0.00022362096589608607
4.394583586408946 -0.00022484168764782178
4.398489882930198 -0.00022590981918059054
4.402396179451451 -0.00022697795071335928
4.406302475972703 -0.00022804608224612802
4.410208772493956 -0.00022911421377889678
4.414115069015208 -0.00023018234531166552
4.41802136553646 -0.00023125047684443428
4.421927662057713 -0.00023231860837720302
4.425833958578965 -0.00023338673990997178
4.429740255100217 -0.00023445487144274052
4.43364655162147 -0.00023552300297550926
4.437552848142722 -0.00023659113450827802
4.441459144663975 -0.00023765926604104676
4.445365441185227 -0.00023872739757381552
4.449271737706479 -0.00023964293888761732
4.453178034227732 -0.0002405584802014191
4.457084330748984 -0.00024147402151522088
4.460990627270236 -0.0002422369726100557
4.464896923791489 -0.00024299992370489053
4.468803220312742 -0.0002439154650186923
4.472709516833993 -0.0002448310063324941
4.476615813355246 -0.0002458991378652628
4.480522109876499 -0.0002471198596169986
4.484428406397751 -0.0002483405813687343
4.488334702919003 -0.00024956130312047
4.492240999440256 -0.0002507820248722057
4.496147295961508 -0.0002520027466239414
4.500053592482761 -0.0002532234683756771
4.503959889004013 -0.00025444419012741283
4.507866185525265 -0.00025566491187914854
4.511772482046518 -0.00025688563363088424
4.515678778567771 -0.00025810635538262
4.519585075089022 -0.0002593270771343557
4.523491371610275 -0.0002605477988860914
4.5273976681315276 -0.0002617685206378271
4.53130396465278 -0.00026298924238956283
4.535210261174032 -0.00026420996414129854
4.5391165576952845 -0.0002652780956740673
4.543022854216537 -0.0002661936369878691
4.546929150737789 -0.0002668039978637369
4.5508354472590415 -0.00026710917830167087
4.554741743780294 -0.0002669565880827039
4.558648040301547 -0.0002661936369878691
4.5625543368227985 -0.0002643625543602655
4.566460633344051 -0.0002611581597619593
4.570366929865304 -0.0002558175020981155
4.574273226386556 -0.00024757763027389944
4.578179522907808 -0.00023567559319447623
4.582085819429061 -0.00021934843976501107
4.585992115950313 -0.00019768062867170214
4.589898412471566 -0.0001702143892576486
4.593804708992818 -0.00013679713130388343
4.59771100551407 -9.773403524834058e-05
4.601617302035323 -5.378805218585489e-05
4.605523598556576 -6.332494087129015e-06
4.609429895077827 4.2954146639200425e-05
4.61333619159908 9.208819714656291e-05
4.617242488120333 0.00013893339436942093
4.621148784641585 0.00018150606546120393
4.625055081162837 0.00021828030823224233
4.62896137768409 0.0002483405813687343
4.632867674205342 0.0002712291142137789
4.636773970726594 0.0002872510872053101
4.640680267247847 0.0002971694514381628
4.644586563769099 0.0003022049286640726
4.648492860290352 0.00030373083085374225
4.652399156811604 0.00030296787975890745
4.656305453332856 0.0003008316166933699
4.660211749854109 0.0002982375829709316
4.6641180463753615 0.0002956435492484932
4.668024342896613 0.00029320210574502174
4.671930639417866 0.0002909132524605173
4.6758369359391185 0.0002886243991760128
4.679743232460371 0.0002860303654535744
4.683649528981623 0.00028328374151216905
4.6875558255028755 0.0002802319371328298
4.691462122024128 0.0002768749523155566
4.695368418545381 0.0002732127870603494
4.6992747150666325 0.00026924544136720834
4.703181011587885 0.0002649729152361334
4.707087308109138 0.0002605477988860914
4.71099360463039 0.0002558175020981155
4.714899901151642 0.0002507820248722057
4.718806197672895 0.0002454413672083619
4.722712494194147 0.0002397955291065843
4.7266187907154 0.00023384451056687267
4.730525087236652 0.0002277409018081941
4.734431383757904 0.00022148470283054854
4.738337680279157 0.0002150759136339361
4.742243976800409 0.00020881971465629053
4.746150273321661 0.00020271610589761197
4.750056569842914 0.0001966124971389334
4.753962866364167 0.0001906614785992218
4.757869162885418 0.00018501564049744413
4.761775459406671 0.0001795223926146334
4.765681755927924 0.00017418173495078966
4.769588052449176 0.0001689936675059129
4.773494348970428 0.0001638056000610361
4.777400645491681 0.0001586175326161593
4.781306942012933 0.00015342946517128253
4.785213238534186 0.00014854657816433967
4.789119535055438 0.00014381628137636376
4.79302583157669 0.0001393911650263218
4.796932128097943 0.00013527122911421378
4.8008384246191955 0.0001314564736400397
4.804744721140447 0.00012794689860379948
4.8086510176617 0.00012474250400549324
4.8125573141829525 0.00012169069962615396
4.816463610704205 0.00011894407568474861
4.820369907225457 0.00011619745174334325
4.8242762037467095 0.00011360341802090487
4.828182500267962 0.00011116197451743343
4.832088796789214 0.00010872053101396201
4.8359950933104665 0.00010612649729152361
4.839901389831719 0.00010353246356908523
4.843807686352972 0.00010078583962767987
4.8477139828742235 9.773403524834058e-05
4.851620279395476 9.437705043106737e-05
4.855526575916729 9.056229495689327e-05
4.859432872437981 8.644235904478523e-05
4.863339168959233 8.216983291371023e-05
4.867245465480486 7.759212634470131e-05
4.871151762001738 7.286182955672542e-05
4.875058058522991 6.797894254978256e-05
4.878964355044243 6.30960555428397e-05
4.882870651565495 5.836575875486382e-05
4.886776948086748 5.394064240482185e-05
4.890683244608001 4.997329671168078e-05
4.894589541129252 4.661631189440757e-05
4.898495837650505 4.402227817196918e-05
4.902402134171758 4.219119554436561e-05
4.90630843069301 4.112306401159686e-05
4.910214727214262 4.081788357366293e-05
4.914121023735515 4.112306401159686e-05
4.918027320256767 4.2038605325398645e-05
4.921933616778019 4.3564507515068286e-05
4.925839913299272 4.554818036163882e-05
4.929746209820524 4.783703364614329e-05
4.933652506341777 5.043106736858167e-05
4.937558802863029 5.333028152895399e-05
4.941465099384281 5.638208590829328e-05
4.945371395905534 5.958648050659953e-05
4.9492776924267865 6.294346532387273e-05
4.953183988948038 6.630045014114595e-05
4.957090285469291 6.950484473945221e-05
4.9609965819905435 7.255664911879149e-05
4.964902878511796 7.54558632791638e-05
4.968809175033048 7.80498970016022e-05
4.9727154715543005 8.033875028610667e-05
4.976621768075553 8.23224231326772e-05
4.980528064596806 8.40009155413138e-05
4.9844343611180575 8.537422751201648e-05
4.98834065763931 8.644235904478523e-05
4.992246954160563 8.735790035858701e-05
4.996153250681815 8.78156710154879e-05
5.000059547203067 8.796826123445488e-05
5.00396584372432 8.78156710154879e-05
5.007872140245572 8.720531013962004e-05
5.011778436766824 8.628976882581826e-05
5.015684733288077 8.49164568551156e-05
5.019591029809329 8.323796444647898e-05
5.023497326330582 8.125429159990845e-05
5.027403622851834 7.896543831540398e-05
5.031309919373086 7.63714045929656e-05
5.035216215894339 7.362478065156024e-05
5.039122512415592 7.072556649118791e-05
5.043028808936843 6.767376211184863e-05
5.046935105458096 6.44693675135424e-05
5.050841401979349 6.111238269626917e-05
5.054747698500601 5.7755397878995964e-05
5.058653995021853 5.4245822842755785e-05
5.062560291543106 5.058365758754864e-05
5.066466588064358 4.676890211337453e-05
5.070372884585611 4.2954146639200425e-05
5.074279181106863 3.8986800946059357e-05
5.078185477628115 3.501945525291829e-05
5.082091774149368 3.105210955977722e-05
5.0859980706706205 2.708476386663615e-05
5.089904367191872 2.311741817349508e-05
5.093810663713125 1.9302662699320976e-05
5.0977169602343775 1.548790722514687e-05
5.101623256755629 1.1825741969939727e-05
5.105529553276882 8.163576714732586e-06
5.1094358497981345 4.501411459525445e-06
5.113342146319387 8.392462043183035e-07
5.117248442840639 -2.822919050888838e-06
5.1211547393618915 -6.332494087129015e-06
5.125061035883144 -9.842069123369192e-06
5.128967332404397 -1.3351644159609369e-05
5.1328736289256485 -1.6861219195849544e-05
5.136779925446901 -2.0523384451056686e-05
5.140686221968154 -2.418554970626383e-05
5.144592518489406 -2.7847714961470967e-05
5.148498815010658 -3.150988021667811e-05
5.152405111531911 -3.501945525291829e-05
5.156311408053163 -3.83764400701915e-05
5.160217704574416 -4.173342488746471e-05
5.164124001095668 -4.493781948577096e-05
5.16803029761692 -4.798962386511025e-05
5.171936594138173 -5.104142824444953e-05
5.175842890659426 -5.394064240482185e-05
5.179749187180677 -5.6687266346227206e-05
5.18365548370193 -5.943389028763256e-05
5.187561780223183 -6.202792401007095e-05
5.191468076744434 -6.462195773250935e-05
5.195374373265687 -6.721599145494774e-05
5.19928066978694 -6.965743495841916e-05
5.203186966308192 -7.194628824292362e-05
5.207093262829444 -7.423514152742809e-05
5.210999559350697 -7.652399481193256e-05
5.214905855871949 -7.881284809643702e-05
5.218812152393202 -8.125429159990845e-05
5.222718448914454 -8.369573510337986e-05
5.226624745435706 -8.61371786068513e-05
5.230531041956959 -8.857862211032273e-05
5.2344373384782115 -9.102006561379415e-05
5.238343634999463 -9.346150911726559e-05
5.242249931520716 -9.575036240177005e-05
5.2461562280419685 -9.788662546730755e-05
5.250062524563221 -0.00010002288853284505
5.253968821084473 -0.00010215915159838254
5.2578751176057255 -0.00010429541466392005
5.261781414126978 -0.00010643167772945754
5.265687710648231 -0.00010841535057602808
5.2695940071694825 -0.00011039902342259862
5.273500303690735 -0.00011253528648813612
5.277406600211988 -0.0001146715495536736
5.2813128967332394 -0.00011696040283817808
5.285219193254492 -0.00011924925612268255
5.289125489775745 -0.00012169069962615396
5.293031786296997 -0.0001241321431296254
5.296938082818249 -0.0001265735866330968
5.300844379339502 -0.00012901503013656827
5.304750675860754 -0.0001314564736400397
5.308656972382007 -0.00013374532692454413
5.312563268903259 -0.0001360341802090486
5.316469565424511 -0.00013832303349355307
5.320375861945764 -0.00014045929655909058
5.324282158467017 -0.00014259555962462805
5.328188454988268 -0.00014473182269016558
5.332094751509521 -0.0001467154955367361
5.336001048030774 -0.00014869916838330664
5.339907344552026 -0.00015083543144884411
5.343813641073278 -0.00015297169451438164
5.347719937594531 -0.00015510795757991914
5.351626234115783 -0.0001573968108644236
5.355532530637036 -0.000159838254367895
5.359438827158288 -0.00016243228809033341
5.36334512367954 -0.0001650263218127718
5.367251420200793 -0.00016762035553521018
5.371157716722045 -0.00016990920881971466
5.375064013243297 -0.00017204547188525216
5.37897030976455 -0.0001740291447318227
5.3828766062858024 -0.00017586022735942625
5.386782902807054 -0.00017769130998702984
5.390689199328307 -0.0001795223926146334
5.394595495849559 -0.00018150606546120393
5.398501792370812 -0.00018364232852674143
5.402408088892064 -0.0001859311818112459
5.406314385413316 -0.00018837262531471732
5.410220681934569 -0.00019081406881818876
5.414126978455822 -0.0001932555123216602
5.418033274977073 -0.0001956969558251316
5.421939571498326 -0.00019813839932860303
5.425845868019579 -0.00020042725261310753
5.429752164540831 -0.00020271610589761197
5.433658461062083 -0.00020485236896314947
5.437564757583336 -0.00020698863202868695
5.441471054104588 -0.00020912489509422447
5.445377350625841 -0.000211108567940795
5.449283647147093 -0.00021293965056839857
5.453189943668345 -0.00021477073319600213
5.457096240189598 -0.00021644922560463874
5.46100253671085 -0.00021812771801327536
5.464908833232102 -0.00021980621042191195
5.468815129753355 -0.00022148470283054854
5.472721426274608 -0.0002231631952391852
5.476627722795859 -0.00022484168764782178
5.480534019317112 -0.0002265201800564584
5.4844403158383646 -0.00022804608224612802
5.488346612359617 -0.00022957198443579767
5.492252908880869 -0.00023094529640650037
5.4961592054021216 -0.00023231860837720302
5.500065501923374 -0.0002336919203479057
5.503971798444627 -0.0002349126420996414
5.5078780949658785 -0.00023628595407034408
5.511784391487131 -0.00023765926604104676
5.515690688008384 -0.00023918516823071643
5.519596984529636 -0.00024071107042038605
5.523503281050888 -0.0002422369726100557
5.527409577572141 -0.00024376287479972535
5.531315874093393 -0.00024513618677042803
5.535222170614646 -0.0002465094987411307
5.539128467135898 -0.0002477302204928664
5.54303476365715 -0.0002489509422446021
5.546941060178403 -0.00025001907377737086
5.550847356699655 -0.00025108720531013965
5.554753653220907 -0.0002520027466239414
5.55865994974216 -0.0002529182879377432
5.562566246263413 -0.00025383382925154495
5.566472542784664 -0.00025474937056534677
5.570378839305917 -0.00025566491187914854
5.57428513582717 -0.0002565804531929503
5.578191432348422 -0.00025734340428778515
5.582097728869674 -0.00025810635538262
5.586004025390927 -0.0002588693064774548
5.589910321912179 -0.0002594796673533227
5.593816618433432 -0.0002600900282291905
5.597722914954684 -0.0002607003891050584
5.601629211475936 -0.00026131074998092627
5.605535507997189 -0.0002619211108567941
5.6094418045184415 -0.000262531471732662
5.613348101039693 -0.0002631418326085298
5.617254397560946 -0.0002637521934843977
5.6211606940821985 -0.0002643625543602655
5.625066990603451 -0.0002649729152361334
5.628973287124703 -0.0002655832761120012
5.6328795836459555 -0.0002661936369878691
5.636785880167208 -0.00026665140764476996
5.64069217668846 -0.0002669565880827039
5.6445984732097125 -0.00026726176852063784
5.648504769730965 -0.0002674143587396048
5.652411066252218 -0.0002677195391775387
5.6563173627734695 -0.00026802471961547263
5.660223659294722 -0.00026848249027237354
5.664129955815975 -0.00026924544136720834
5.668036252337227 -0.0002703135728999771
5.671942548858479 -0.0002715342946517128
5.675848845379732 -0.00027290760662241546
5.679755141900984 -0.0002742809185931182
5.683661438422237 -0.00027580682078278784
5.687567734943489 -0.0002773327229724575
5.691474031464741 -0.00027885862516212714
5.695380327985994 -0.0002803845273517968
5.699286624507247 -0.0002819104295414664
5.703192921028498 -0.000283436331731136
5.707099217549751 -0.00028496223392080567
5.711005514071004 -0.0002866407263294423
5.714911810592256 -0.00028831921873807885
5.718818107113508 -0.0002899977111467155
5.722724403634761 -0.0002915236133363852
5.726630700156013 -0.00029289692530708785
5.730536996677265 -0.00029411764705882356
5.734443293198518 -0.0002951857785915923
5.73834958971977 -0.0002959487296864271
5.742255886241023 -0.00029625391012436103
5.746162182762275 -0.0002956435492484932
5.750068479283527 -0.0002938124666208896
5.75397477580478 -0.0002901503013656825
5.7578810723260325 -0.00028389410238803694
5.761787368847284 -0.0002742809185931182
5.765693665368537 -0.00026039520866712445
5.7695999618897895 -0.00024147402151522088
5.773506258411042 -0.00021675440604257268
5.777412554932294 -0.000185626001373312
5.7813188514535465 -0.00014778362706950485
5.785225147974799 -0.00010353246356908522
5.789131444496052 -5.378805218585489e-05
5.7930377410173035 7.629510948348238e-08
5.796944037538556 5.6229495689326316e-05
5.800850334059809 0.00011223010605020219
5.804756630581061 0.00016563668268863965
5.808662927102313 0.00021431296253910124
5.812569223623566 0.00025627527275501636
5.816475520144818 0.0002901503013656825
5.82038181666607 0.0003156328679331655
5.824288113187323 0.0003328755626764324
5.828194409708575 0.00034279392690928515
5.832100706229828 0.0003470664530403601
5.83600700275108 0.00034721904325932707
5.839913299272332 0.00034477759975585565
5.843819595793585 0.00034111543450064853
5.847725892314838 0.00033730067902647444
5.851632188836089 0.00033379110399023423
5.855538485357342 0.0003308918898298619
5.859444781878595 0.0003282978561074235
5.863351078399847 0.0003260090028229191
5.867257374921099 0.00032356755931944766
5.871163671442352 0.0003209735255970093
5.875069967963604 0.0003180743114366369
5.878976264484857 0.0003147173266193637
5.882882561006109 0.00031105516136415654
5.886788857527361 0.00030708781567101554
5.890695154048614 0.0003028152895399405
5.8946014505698665 0.0002982375829709316
5.898507747091118 0.0002933546959639887
5.902414043612371 0.0002881666285191119
5.9063203401336235 0.0002828259708552682
5.910226636654875 0.0002771801327534905
5.914132933176128 0.0002712291142137789
5.9180392296973805 0.00026512550545510036
5.921945526218633 0.0002588693064774548
5.925851822739885 0.00025246051728084227
5.9297581192611375 0.00024620431830319676
5.93366441578239 0.00023994811932555126
5.937570712303643 0.00023384451056687267
5.9414770088248945 0.0002277409018081941
5.945383305346147 0.00022178988326848248
5.9492896018674 0.00021599145494773786
5.953195898388652 0.00021034561684596018
5.957102194909904 0.00020485236896314947
5.961008491431157 0.0001996643015182727
5.964914787952409 0.00019478141451132982
5.968821084473662 0.0001902037079423209
5.972727380994914 0.0001859311818112459
5.976633677516166 0.00018211642633707178
5.980539974037419 0.00017860685130083163
5.984446270558672 0.0001752498664835584
5.988352567079923 0.00017204547188525216
5.992258863601176 0.0001689936675059129
5.996165160122429 0.00016609445334554054
6.000071456643681 0.0001633478294041352
6.003977753164933 0.00016075379568169682
6.007884049686186 0.00015831235217822538
6.011790346207438 0.00015617608911268788
6.01569664272869 0.00015419241626611735
6.019602939249943 0.0001523613336385138
6.023509235771195 0.00015068284122987717
6.027415532292448 0.00014915693904020752
6.0313218288137 0.00014763103685053788
6.035228125334952 0.00014595254444190129
6.039134421856205 0.0001441214618142977
6.0430407183774575 0.0001419851987487602
6.046947014898709 0.00013954375524528878
6.050853311419962 0.00013679713130388343
6.0547596079412145 0.00013374532692454413
6.058665904462467 0.00013038834210727092
6.062572200983719 0.0001265735866330968
6.0664784975049715 0.00012260624093995574
6.070384794026224 0.00011833371480888075
6.074291090547477 0.00011406118867780575
6.0781973870687285 0.00010978866254673075
6.082103683589981 0.00010566872663462272
6.086009980111234 0.00010185397116044861
6.089916276632486 9.834439612420843e-05
6.093822573153738 9.529259174486915e-05
6.097728869674991 9.269855802243077e-05
6.101635166196243 9.056229495689327e-05
6.105541462717495 8.888380254825666e-05
6.109447759238748 8.78156710154879e-05
6.11335405576 8.720531013962004e-05
6.117260352281253 8.705271992065309e-05
6.121166648802505 8.720531013962004e-05
6.125072945323757 8.766308079652094e-05
6.12897924184501 8.827344167238881e-05
6.132885538366263 8.903639276722363e-05
6.136791834887514 8.995193408102541e-05
6.140698131408767 9.102006561379415e-05
6.14460442793002 9.224078736552988e-05
6.148510724451272 9.361409933623255e-05
6.152417020972524 9.498741130693522e-05
6.156323317493777 9.636072327763792e-05
6.160229614015029 9.758144502937362e-05
6.164135910536282 9.864957656214236e-05
6.168042207057534 9.956511787594417e-05
6.171948503578786 0.00010048065918974595
6.175854800100039 0.00010124361028458076
6.1797610966212915 0.00010185397116044861
6.183667393142543 0.00010246433203631646
6.187573689663796 0.00010307469291218433
6.1914799861850485 0.00010353246356908523
6.1953862827063 0.00010383764400701916
6.199292579227553 0.00010399023422598613
6.2031988757488055 0.00010383764400701916
6.207105172270058 0.00010337987335011826
6.21101146879131 0.00010261692225528343
6.2149177653125625 0.00010139620050354773
6.218824061833815 9.98702983138781e-05
6.222730358355068 9.80392156862745e-05
6.2266366548763195 9.590295262073702e-05
6.230542951397572 9.361409933623255e-05
6.234449247918825 9.117265583276112e-05
6.238355544440077 8.857862211032273e-05
6.242261840961329 8.598458838788434e-05
6.246168137482582 8.323796444647898e-05
6.250074434003834 8.033875028610667e-05
6.253980730525087 7.743953612573434e-05
6.257887027046339 7.438773174639506e-05
6.261793323567591 7.118333714808881e-05
6.265699620088844 6.782635233081559e-05
6.269605916610097 6.44693675135424e-05
6.273512213131348 6.111238269626917e-05
6.277418509652601 5.7755397878995964e-05
6.281324806173854 5.4245822842755785e-05
6.285231102695105 5.0736247806515606e-05
6.289137399216358 4.7074082551308464e-05
6.293043695737611 4.341191729610132e-05
6.296949992258863 3.974975204089418e-05
6.300856288780115 3.593499656672007e-05
6.304762585301368 3.212024109254596e-05
6.30866888182262 2.81528953994049e-05
6.312575178343873 2.418554970626383e-05
6.316481474865125 2.021820401312276e-05
6.320387771386377 1.6403448538948654e-05
6.32429406790763 1.2588693064774549e-05
6.3282003644288825 8.926527809567407e-06
6.332106660950134 5.41695277332723e-06
6.336012957471387 2.0599679560540174e-06
6.3399192539926394 -1.2970168612191955e-06
6.343825550513892 -4.654001678492408e-06
6.347731847035144 -8.163576714732586e-06
6.351638143556396 -1.1673151750972763e-05
6.355544440077649 -1.5335317006179903e-05
6.359450736598902 -1.8997482261387045e-05
6.363357033120153 -2.2659647516594188e-05
6.367263329641406 -2.632181277180133e-05
6.371169626162659 -2.9831387808041505e-05
6.37507592268391 -3.318837262531472e-05
6.378982219205163 -3.6545357442587935e-05
6.382888515726416 -3.974975204089418e-05
6.386794812247668 -4.280155642023346e-05
6.39070110876892 -4.5853360799572744e-05
6.394607405290173 -4.890516517891203e-05
6.398513701811425 -5.195696955825132e-05
6.402419998332678 -5.50087739375906e-05
6.40632629485393 -5.806057831692989e-05
6.410232591375182 -6.111238269626917e-05
6.414138887896435 -6.416418707560845e-05
6.418045184417688 -6.706340123598078e-05
6.421951480938939 -6.981002517738613e-05
6.425857777460192 -7.240405889982453e-05
6.429764073981445 -7.499809262226292e-05
6.433670370502697 -7.743953612573434e-05
6.437576667023949 -7.988097962920576e-05
6.441482963545202 -8.23224231326772e-05
6.445389260066454 -8.476386663614863e-05
6.449295556587707 -8.720531013962004e-05
6.4532018531089586 -8.964675364309148e-05
6.457108149630211 -9.208819714656291e-05
6.461014446151464 -9.452964065003433e-05
6.4649207426727155 -9.712367437247273e-05
6.468827039193968 -9.971770809491112e-05
6.472733335715221 -0.00010231174181734951
6.476639632236473 -0.00010505836575875486
6.480545928757725 -0.00010780498970016023
6.484452225278978 -0.00011055161364156557
6.48835852180023 -0.00011329823758297093
6.492264818321483 -0.00011589227130540933
6.496171114842735 -0.00011848630502784771
6.500077411363987 -0.00012092774853131915
6.50398370788524 -0.00012321660181582362
6.507890004406493 -0.00012550545510032807
6.511796300927744 -0.00012764171816586557
6.515702597448997 -0.00012977798123140307
6.51960889397025 -0.00013191424429694057
6.523515190491502 -0.00013420309758144502
6.527421487012754 -0.0001364919508659495
6.531327783534007 -0.00013893339436942093
6.535234080055259 -0.00014137483787289234
6.539140376576512 -0.00014381628137636376
6.543046673097764 -0.00014625772487983523
6.546952969619016 -0.00014869916838330664
6.550859266140269 -0.00015114061188677806
6.554765562661521 -0.0001535820553902495
6.558671859182773 -0.0001560234988937209
6.562578155704026 -0.00015846494239719233
6.5664844522252785 -0.0001609063859006638
6.57039074874653 -0.0001633478294041352
6.574297045267783 -0.00016563668268863965
6.5782033417890355 -0.00016792553597314412
6.582109638310288 -0.0001702143892576486
6.58601593483154 -0.00017250324254215304
6.5899222313527925 -0.0001747920958266575
6.593828527874045 -0.000176928358892195
6.597734824395298 -0.00017906462195773251
6.6016411209165495 -0.00018120088502327002
6.605547417437802 -0.00018348973830777446
6.609453713959055 -0.00018577859159227896
6.613360010480307 -0.0001880674448767834
6.617266307001559 -0.00019035629816128785
6.621172603522812 -0.00019264515144579235
6.625078900044064 -0.00019478141451132982
6.628985196565317 -0.00019691767757686732
6.632891493086569 -0.00019890135042343785
6.636797789607821 -0.00020073243305104144
6.640704086129074 -0.00020241092545967803
6.644610382650326 -0.00020408941786831465
6.648516679171578 -0.00020576791027695124
6.652422975692831 -0.00020744640268558788
6.656329272214084 -0.00020927748531319144
6.660235568735335 -0.00021126115815976198
6.664141865256588 -0.00021324483100633248
6.668048161777841 -0.00021522850385290304
6.671954458299093 -0.00021721217669947357
6.675860754820345 -0.00021904325932707713
6.679767051341598 -0.00022072175173571375
6.68367334786285 -0.00022240024414435034
6.687579644384103 -0.00022392614633402
6.691485940905355 -0.0002252994583047227
6.695392237426607 -0.00022667277027542534
6.69929853394786 -0.00022804608224612802
6.7032048304691125 -0.0002294193942168307
6.707111126990364 -0.0002307927061875334
6.711017423511617 -0.00023231860837720302
6.7149237200328695 -0.00023384451056687267
6.718830016554122 -0.00023537041275654232
6.722736313075374 -0.00023689631494621194
6.7266426095966265 -0.0002382696269169146
6.730548906117879 -0.00023964293888761732
6.734455202639131 -0.00024101625085832
6.7383614991603835 -0.00024238956282902267
6.742267795681636 -0.00024376287479972535
6.746174092202889 -0.00024513618677042803
6.7500803887241405 -0.0002465094987411307
6.753986685245393 -0.0002478828107118334
6.757892981766646 -0.00024925612268253606
6.761799278287898 -0.00025062943465323874
6.76570557480915 -0.0002520027466239414
6.769611871330403 -0.0002532234683756771
6.773518167851655 -0.00025429159990844586
6.777424464372908 -0.0002552071412222476
6.78133076089416 -0.0002559700923170825
6.785237057415412 -0.0002567330434119173
6.789143353936665 -0.00025734340428778515
6.793049650457918 -0.00025795376516365303
6.796955946979169 -0.0002585641260395209
6.800862243500422 -0.00025917448691538874
6.804768540021675 -0.0002597848477912566
6.808674836542927 -0.00026039520866712445
6.812581133064179 -0.00026100556954299233
6.816487429585432 -0.00026161593041886016
6.820393726106684 -0.00026222629129472804
6.824300022627936 -0.00026283665217059586
6.828206319149189 -0.00026344701304646374
6.832112615670441 -0.00026405737392233157
6.836018912191694 -0.00026466773479819945
6.839925208712946 -0.0002652780956740673
6.843831505234198 -0.00026604104676890213
6.847737801755451 -0.0002668039978637369
6.8516440982767035 -0.0002675669489585718
6.855550394797955 -0.0002683299000534066
6.859456691319208 -0.00026924544136720834
6.8633629878404605 -0.00027016098268101016
6.867269284361713 -0.00027107652399481193
6.871175580882965 -0.0002719920653086137
6.8750818774042175 -0.00027306019684138243
6.87898817392547 -0.0002741283283741512
6.882894470446723 -0.00027534905012588693
6.8868007669679745 -0.0002765697718776227
6.890707063489227 -0.0002779430838483253
6.89461336001048 -0.000279316395819028
6.898519656531732 -0.00028084229800869764
6.902425953052984 -0.0002823682001983673
6.906332249574237 -0.00028389410238803694
6.910238546095489 -0.0002854200045777066
6.914144842616741 -0.0002869459067673762
6.918051139137994 -0.00028831921873807885
6.921957435659246 -0.00028984512092774856
6.925863732180499 -0.0002913710231174182
6.929770028701751 -0.00029289692530708785
6.933676325223003 -0.0002945754177157244
6.937582621744256 -0.00029625391012436103
6.941488918265509 -0.0002977798123140307
6.94539521478676 -0.00029915312428473336
6.949301511308013 -0.00030037384603646906
6.953207807829266 -0.00030113679713130386
6.957114104350518 -0.00030113679713130386
6.96102040087177 -0.0003000686655985351
6.964926697393023 -0.0002976272220950637
6.968832993914275 -0.00029320210574502174
6.972739290435528 -0.0002860303654535744
6.97664558695678 -0.00027519645990692
6.980551883478032 -0.0002599374380102236
6.984458179999285 -0.00023918516823071643
6.9883644765205375 -0.00021202410925459677
6.992270773041789 -0.0001778439002059968
6.996177069563042 -0.00013664454108491646
7.0000833660842945 -8.857862211032273e-05
7.003989662605546 -3.501945525291829e-05
7.007895959126799 2.250705729762722e-05
7.0118022556480515 8.171206225680935e-05
7.015708552169304 0.00013984893568322272
7.019614848690556 0.0001944762340733959
7.0235211452118085 0.00024315251392385747
7.027427441733061 0.0002841992828259709
7.031333738254314 0.0003163958190280003
7.0352400347755655 0.00033974212252994585
7.039146331296818 0.00035469596398870833
7.043052627818071 0.00036263065537499046
7.046958924339323 0.0003650720988784619
7.050865220860575 0.00036385137712672617
7.054771517381828 0.000360494392309453
7.05867781390308 0.000356221866178378
7.062584110424333 0.000351949340047303
7.066490406945585 0.00034813458457312883
7.070396703466837 0.00034477759975585565
7.07430299998809 0.00034172579537651636
7.078209296509343 0.0003388265812161441
7.082115593030594 0.00033577477683680474
7.086021889551847 0.0003325703822384985
7.0899281860731 0.0003290608072022583
7.093834482594351 0.00032524605172808423
7.097740779115604 0.00032127870603494317
7.101647075636857 0.00031715877012283513
7.105553372158109 0.00031288624399176013
7.109459668679361 0.0003084611276417182
7.113365965200614 0.00030373083085374225
7.117272261721866 0.0002985427634088655
7.121178558243119 0.00029289692530708785
7.125084854764371 0.00028679331654840926
7.128991151285623 0.0002802319371328298
7.132897447806876 0.0002733653772793164
7.1368037443281285 0.00026634622720683607
7.14071004084938 0.0002593270771343557
7.144616337370633 0.00025230792706187535
7.1485226338918855 0.0002454413672083619
7.152428930413138 0.00023872739757381552
7.15633522693439 0.00023231860837720302
7.1602415234556425 0.0002260624093995575
7.164147819976895 0.00021995880064087892
7.168054116498148 0.0002140077821011673
7.1719604130193995 0.00020836194399938965
7.175866709540652 0.00020286869611657894
7.179773006061905 0.00019752803845273517
7.1836793025831565 0.0001923399710078584
7.187585599104409 0.00018730449378194858
7.191491895625662 0.0001825741969939727
7.195398192146914 0.00017799649042496378
7.199304488668166 0.00017372396429388875
7.203210785189419 0.00016960402838178074
7.207117081710671 0.00016578927290760662
7.211023378231924 0.00016227969787136644
7.214929674753176 0.00015892271305409324
7.218835971274428 0.00015587090867475394
7.222742267795681 0.00015297169451438164
7.226648564316934 0.00015022507057297626
7.230554860838185 0.00014763103685053788
7.234461157359438 0.0001450370031280995
7.238367453880691 0.00014274814984359502
7.242273750401943 0.00014061188677805752
7.246180046923195 0.00013847562371252005
7.250086343444448 0.0001364919508659495
7.2539926399657 0.00013450827801937896
7.257898936486953 0.00013237201495384145
7.261805233008205 0.00012993057145037004
7.265711529529457 0.00012718394750896466
7.26961782605071 0.00012397955291065842
7.273524122571962 0.00012046997787441825
7.277430419093214 0.00011650263218127718
7.281336715614467 0.00011223010605020219
7.2852430121357195 0.00010765239948119326
7.289149308656971 0.00010307469291218433
7.293055605178224 9.84969863431754e-05
7.2969619016994764 9.42244602121004e-05
7.300868198220729 9.025711451895934e-05
7.304774494741981 8.659494926375219e-05
7.3086807912632334 8.339055466544594e-05
7.312587087784486 8.079652094300755e-05
7.316493384305739 7.881284809643702e-05
7.32039968082699 7.759212634470131e-05
7.324305977348243 7.698176546883345e-05
7.328212273869496 7.713435568780042e-05
7.332118570390748 7.774471656366827e-05
7.336024866912 7.896543831540398e-05
7.339931163433253 8.049134050507363e-05
7.343837459954505 8.23224231326772e-05
7.347743756475758 8.44586861982147e-05
7.35165005299701 8.659494926375219e-05
7.355556349518262 8.87312123292897e-05
7.359462646039515 9.071488517586022e-05
7.363368942560768 9.254596780346381e-05
7.367275239082019 9.42244602121004e-05
7.371181535603272 9.559777218280308e-05
7.375087832124525 9.68184939345388e-05
7.378994128645776 9.773403524834058e-05
7.382900425167029 9.864957656214236e-05
7.386806721688282 9.941252765697718e-05
7.390713018209534 0.00010017547875181202
7.394619314730786 0.00010093842984664683
7.398525611252039 0.00010154879072251468
7.402431907773291 0.00010215915159838254
7.406338204294544 0.00010261692225528343
7.4102445008157956 0.0001027695124742504
7.414150797337048 0.0001027695124742504
7.418057093858301 0.00010246433203631646
7.421963390379553 0.00010185397116044861
7.425869686900805 0.00010093842984664683
7.429775983422058 9.971770809491112e-05
7.43368227994331 9.819180590524148e-05
7.437588576464563 9.620813305867094e-05
7.441494872985815 9.391927977416647e-05
7.445401169507067 9.132524605172808e-05
7.44930746602832 8.842603189135578e-05
7.453213762549573 8.537422751201648e-05
7.457120059070824 8.23224231326772e-05
7.461026355592077 7.92706187533379e-05
7.46493265211333 7.621881437399864e-05
7.468838948634581 7.316700999465934e-05
7.472745245155834 7.011520561532006e-05
7.476651541677087 6.706340123598078e-05
7.480557838198339 6.401159685664148e-05
7.484464134719591 6.0654612039368275e-05
7.488370431240844 5.699244678416113e-05
7.492276727762096 5.317769130998703e-05
7.496183024283349 4.9057755397878995e-05
7.500089320804601 4.4785229266804e-05
7.503995617325853 4.036011291676204e-05
7.507901913847106 3.6087586785687045e-05
7.5118082103683586 3.1967650873579e-05
7.51571450688961 2.81528953994049e-05
7.519620803410863 2.449073014419776e-05
7.5235270999321155 2.0981155107957583e-05
7.527433396453368 1.7624170290684368e-05
7.53133969297462 1.4267185473411155e-05
7.5352459894958725 1.0910200656137941e-05
7.539152286017125 7.248035400930801e-06
7.543058582538378 3.4332799267566952e-06
7.5469648790596295 -5.340657663843745e-07
7.550871175580882 -4.654001678492408e-06
7.554777472102135 -8.926527809567407e-06
7.5586837686233865 -1.3199053940642406e-05
7.562590065144639 -1.731898985275044e-05
7.566496361665892 -2.128633554589151e-05
7.570402658187144 -2.5101091020065616e-05
7.574308954708396 -2.8763256275272754e-05
7.578215251229649 -3.212024109254596e-05
7.582121547750901 -3.5324635690852214e-05
7.586027844272154 -3.8529030289158466e-05
7.589934140793406 -4.158083466849775e-05
7.593840437314658 -4.4632639047837036e-05
7.597746733835911 -4.768444342717632e-05
7.601653030357164 -5.088883802548257e-05
7.605559326878415 -5.409323262378882e-05
7.609465623399668 -5.729762722209506e-05
7.613371919920921 -6.050202182040131e-05
7.617278216442173 -6.35538261997406e-05
7.621184512963425 -6.660563057907988e-05
7.625090809484678 -6.950484473945221e-05
7.62899710600593 -7.240405889982453e-05
7.632903402527183 -7.515068284122987e-05
7.636809699048435 -7.789730678263524e-05
7.640715995569687 -8.06439307240406e-05
7.64462229209094 -8.339055466544594e-05
7.648528588612192 -8.61371786068513e-05
7.652434885133444 -8.888380254825666e-05
7.656341181654697 -9.1630426489662e-05
7.6602474781759495 -9.437705043106737e-05
7.664153774697201 -9.712367437247273e-05
7.668060071218454 -9.971770809491112e-05
7.6719663677397065 -0.00010231174181734951
7.675872664260959 -0.00010475318532082094
7.679778960782211 -0.00010719462882429236
7.6836852573034635 -0.00010978866254673075
7.687591553824716 -0.00011238269626916915
7.691497850345969 -0.00011497672999160753
7.6954041468672205 -0.0001177233539330129
7.699310443388473 -0.00012046997787441825
7.703216739909726 -0.00012321660181582362
7.707123036430978 -0.000125810635538262
7.71102933295223 -0.0001284046692607004
7.714935629473483 -0.00013084611276417183
7.718841925994735 -0.00013313496604867628
7.722748222515988 -0.00013527122911421378
7.72665451903724 -0.00013740749217975128
7.730560815558492 -0.00013954375524528878
7.734467112079745 -0.00014183260852979323
7.738373408600997 -0.0001441214618142977
7.742279705122249 -0.00014656290531776914
7.746186001643502 -0.00014900434882124055
7.750092298164755 -0.00015159838254367894
7.753998594686006 -0.00015419241626611735
7.757904891207259 -0.00015678644998855573
7.761811187728512 -0.00015922789349202715
7.765717484249764 -0.00016151674677653165
7.769623780771016 -0.0001638056000610361
7.773530077292269 -0.0001659418631265736
7.777436373813521 -0.0001680781261921111
7.781342670334774 -0.0001702143892576486
7.785248966856026 -0.0001723506523231861
7.789155263377278 -0.00017448691538872357
7.793061559898531 -0.0001766231784542611
7.7969678564197835 -0.0001787594415197986
7.800874152941035 -0.00018089570458533607
7.804780449462288 -0.00018303196765087358
7.8086867459835405 -0.00018516823071641108
7.812593042504793 -0.00018730449378194858
7.816499339026045 -0.00018959334706645305
7.8204056355472975 -0.00019188220035095752
7.82431193206855 -0.00019417105363546197
7.828218228589802 -0.00019630731670099947
7.8321245251110545 -0.00019844357976653697
7.836030821632307 -0.00020042725261310753
7.83993711815356 -0.00020241092545967803
7.8438434146748115 -0.00020424200808728162
7.847749711196064 -0.00020607309071488518
7.851656007717317 -0.00020790417334248877
7.855562304238569 -0.00020973525597009233
7.859468600759821 -0.0002115663385976959
7.863374897281074 -0.00021339742122529945
7.867281193802326 -0.00021522850385290304
7.871187490323579 -0.0002170595864805066
7.875093786844831 -0.00021873807888914322
7.879000083366083 -0.0002204165712977798
7.882906379887336 -0.00022194247348744945
7.886812676408589 -0.0002234683756771191
7.89071897292984 -0.00022499427786678875
7.894625269451093 -0.0002265201800564584
7.898531565972346 -0.00022804608224612802
7.902437862493598 -0.00022972457465476464
7.90634415901485 -0.00023140306706340125
7.910250455536103 -0.00023308155947203784
7.914156752057355 -0.00023476005188067446
7.918063048578607 -0.00023628595407034408
7.92196934509986 -0.00023781185626001373
7.925875641621112 -0.00023918516823071643
7.929781938142365 -0.0002405584802014191
7.933688234663617 -0.00024193179217212176
7.937594531184869 -0.00024330510414282444
7.941500827706122 -0.0002448310063324941
7.9454071242273745 -0.00024635690852216373
7.949313420748626 -0.00024803540093080035
7.953219717269879 -0.00024971389333943697
7.9571260137911315 -0.00025123979552910656
7.961032310312384 -0.00025261310749980924
7.964938606833636 -0.00025383382925154495
7.9688449033548885 -0.00025490196078431374
7.972751199876141 -0.0002558175020981155
7.976657496397394 -0.0002565804531929503
7.9805637929186455 -0.00025734340428778515
7.984470089439898 -0.00025810635538262
7.988376385961151 -0.0002588693064774548
7.992282682482403 -0.00025963225757228965
7.996188979003655 -0.0002605477988860914
8.000095275524908 -0.0002614633401998932
8.00400157204616 -0.000262378881513695
8.007907868567413 -0.0002632944228274968
8.011814165088666 -0.00026420996414129854
8.015720461609916 -0.0002649729152361334
8.019626758131169 -0.0002657358663309682
8.023533054652422 -0.000266498817425803
8.027439351173674 -0.00026710917830167087
8.031345647694927 -0.0002677195391775387
8.03525194421618 -0.0002683299000534066
8.039158240737432 -0.00026894026092927445
8.043064537258685 -0.00026970321202410925
8.046970833779936 -0.00027046616311894405
8.050877130301188 -0.0002712291142137789
8.054783426822441 -0.0002719920653086137
8.058689723343694 -0.00027275501640344855
8.062596019864946 -0.0002735179674982834
8.066502316386199 -0.0002742809185931182
8.070408612907451 -0.00027519645990692
8.074314909428704 -0.0002761120012207218
8.078221205949955 -0.0002771801327534905
8.082127502471208 -0.00027824826428625926
8.08603379899246 -0.00027946898603799496
8.089940095513713 -0.00028068970778973067
8.093846392034965 -0.0002819104295414664
8.097752688556218 -0.0002831311512932021
8.10165898507747 -0.0002843518730449378
8.105565281598722 -0.00028572518501564047
8.109471578119974 -0.00028709849698634315
8.113377874641227 -0.0002884718089570458
8.11728417116248 -0.00028984512092774856
8.121190467683732 -0.00029121843289845123
8.125096764204985 -0.0002925917448691539
8.129003060726237 -0.0002939650568398566
8.13290935724749 -0.00029533836881055927
8.13681565376874 -0.00029671168078126194
8.140721950289993 -0.0002980849927519646
8.144628246811246 -0.00029930571450370033
8.148534543332499 -0.00030052643625543603
8.152440839853751 -0.00030159456778820477
8.156347136375004 -0.00030251010910200654
8.160253432896257 -0.0003031204699778744
8.16415972941751 -0.0003032730601968414
8.16806602593876 -0.00030251010910200654
8.171972322460013 -0.000300679026474403
8.175878618981265 -0.00029701686121919583
8.179784915502518 -0.0002909132524605173
8.18369121202377 -0.0002814526588845655
8.187597508545023 -0.0002677195391775387
8.191503805066276 -0.0002489509422446021
8.195410101587527 -0.00022423132677195393
8.19931639810878 -0.00019295033188372626
8.203222694630032 -0.0001548027771419852
8.207128991151285 -0.00011009384298466469
8.211035287672537 -5.943389028763256e-05
8.21494158419379 -4.196231021591516e-06
8.218847880715042 5.3635461966887925e-05
8.222754177236295 0.00011192492561226826
8.226660473757546 0.0001680781261921111
8.230566770278799 0.00021980621042191195
8.234473066800051 0.00026512550545510036
8.238379363321304 0.0003026626993209735
8.242285659842556 0.0003318074311436637
8.246191956363809 0.0003524071107042039
8.250098252885062 0.0003653772793163958
8.254004549406314 0.00037178606851300834
8.257910845927565 0.000373311970702678
8.261817142448818 0.00037132829785610743
8.26572343897007 0.00036736095216296637
8.269629735491323 0.0003624780651560235
8.273536032012576 0.0003572899977111467
8.277442328533828 0.0003522545204852369
8.281348625055081 0.000347676813916228
8.285254921576332 0.000343404287785153
8.289161218097584 0.0003394369420920119
8.293067514618837 0.00033562218661783777
8.29697381114009 0.0003316548409246967
8.300880107661342 0.0003275349050125887
8.304786404182595 0.0003232623788815137
8.308692700703848 0.0003186846723125047
8.3125989972251 0.0003138017853055619
8.316505293746351 0.00030861371786068513
8.320411590267604 0.00030296787975890745
8.324317886788856 0.00029671168078126194
8.328224183310109 0.0002901503013656825
8.332130479831362 0.0002831311512932021
8.336036776352614 0.00027580682078278784
8.339943072873867 0.0002683299000534066
8.34384936939512 0.0002607003891050584
8.34775566591637 0.00025307087815671015
8.351661962437623 0.0002454413672083619
8.355568258958876 0.0002379644464789807
8.359474555480128 0.00023064011596856643
8.36338085200138 0.00022331578545815216
8.367287148522633 0.00021614404516670483
8.371193445043886 0.00020912489509422447
8.375099741565137 0.00020210574502174412
8.37900603808639 0.00019523918516823073
8.382912334607642 0.00018837262531471732
8.386818631128895 0.00018181124589913787
8.390724927650147 0.00017540245670252537
8.3946312241714 0.0001692988479438468
8.398537520692653 0.00016350041962310215
8.402443817213905 0.00015800717174029144
8.406350113735156 0.00015297169451438164
8.410256410256409 0.00014824139772640573
8.414162706777661 0.00014366369115739681
8.418069003298914 0.0001393911650263218
8.421975299820167 0.0001351186388952468
8.42588159634142 0.00013084611276417183
8.429787892862672 0.00012672617685206377
8.433694189383925 0.0001227588311589227
8.437600485905175 0.00011894407568474861
8.441506782426428 0.00011543450064850844
8.44541307894768 0.00011207751583123522
8.449319375468933 0.00010887312123292897
8.453225671990186 0.00010566872663462272
8.457131968511439 0.00010246433203631646
8.461038265032691 9.910734721904326e-05
8.464944561553942 9.544518196383611e-05
8.468850858075195 9.147783627069505e-05
8.472757154596447 8.720531013962004e-05
8.4766634511177 8.247501335164416e-05
8.480569747638953 7.743953612573434e-05
8.484476044160205 7.225146868085756e-05
8.488382340681458 6.691081101701381e-05
8.49228863720271 6.172274357213703e-05
8.496194933723961 5.6687266346227206e-05
8.500101230245214 5.2109559777218284e-05
8.504007526766467 4.8142214084077215e-05
8.50791382328772 4.4785229266804e-05
8.511820119808972 4.219119554436561e-05
8.515726416330224 4.036011291676204e-05
8.519632712851477 3.929198138399328e-05
8.52353900937273 3.913939116502632e-05
8.52744530589398 3.974975204089418e-05
8.531351602415233 4.112306401159686e-05
8.535257898936486 4.325932707713436e-05
8.539164195457738 4.615854123750668e-05
8.543070491978991 4.966811627374685e-05
8.546976788500244 5.3635461966887925e-05
8.550883085021496 5.806057831692989e-05
8.554789381542747 6.279087510490578e-05
8.558695678064 6.782635233081559e-05
8.562601974585252 7.286182955672542e-05
8.566508271106505 7.789730678263524e-05
8.570414567627758 8.278019378957808e-05
8.57432086414901 8.735790035858701e-05
8.578227160670263 9.1630426489662e-05
8.582133457191516 9.544518196383611e-05
8.586039753712766 9.880216678110933e-05
8.589946050234019 0.00010170138094148165
8.593852346755272 0.00010414282444495308
8.597758643276524 0.00010612649729152361
8.601664939797777 0.00010780498970016023
8.60557123631903 0.0001091783016708629
8.609477532840282 0.00011009384298466469
8.613383829361535 0.00011070420386053254
8.617290125882786 0.00011100938429846647
8.621196422404038 0.00011100938429846647
8.625102718925291 0.00011055161364156557
8.629009015446544 0.00010963607232776379
8.632915311967796 0.00010826276035706111
8.636821608489049 0.00010627908751049057
8.640727905010301 0.00010383764400701916
8.644634201531552 0.00010093842984664683
8.648540498052805 9.758144502937362e-05
8.652446794574058 9.391927977416647e-05
8.65635309109531 9.010452429999237e-05
8.660259387616563 8.61371786068513e-05
8.664165684137815 8.201724269474327e-05
8.668071980659068 7.789730678263524e-05
8.67197827718032 7.362478065156024e-05
8.675884573701572 6.935225452048524e-05
8.679790870222824 6.507972838941025e-05
8.683697166744077 6.080720225833524e-05
8.68760346326533 5.638208590829328e-05
8.691509759786582 5.195696955825132e-05
8.695416056307835 4.7531853208209355e-05
8.699322352829087 4.310673685816739e-05
8.70322864935034 3.868162050812543e-05
8.70713494587159 3.425650415808347e-05
8.711041242392843 2.9831387808041508e-05
8.714947538914096 2.5558861676966506e-05
8.718853835435349 2.128633554589151e-05
8.722760131956601 1.701380941481651e-05
8.726666428477854 1.2741283283741512e-05
8.730572724999107 8.468757152666515e-06
8.734479021520357 4.348821240558481e-06
8.73838531804161 2.2888532845044662e-07
8.742291614562863 -3.7384603646906233e-06
8.746197911084115 -7.553215838864729e-06
8.750104207605368 -1.121538109407187e-05
8.75401050412662 -1.4724956130312046e-05
8.757916800647873 -1.8234531166552225e-05
8.761823097169126 -2.1591515983825437e-05
8.765729393690377 -2.494850080109865e-05
8.76963569021163 -2.8305485618371864e-05
8.773541986732882 -3.166247043564507e-05
8.777448283254135 -3.517204547188525e-05
8.781354579775387 -3.868162050812543e-05
8.78526087629664 -4.219119554436561e-05
8.789167172817892 -4.570077058060578e-05
8.793073469339145 -4.921034561684596e-05
8.796979765860396 -5.2567330434119174e-05
8.800886062381649 -5.5771725032425426e-05
8.804792358902901 -5.882352941176471e-05
8.808698655424154 -6.172274357213703e-05
8.812604951945406 -6.446936751354238e-05
8.816511248466659 -6.721599145494774e-05
8.820417544987912 -6.996261539635309e-05
8.824323841509162 -7.270923933775846e-05
8.828230138030415 -7.54558632791638e-05
8.832136434551668 -7.820248722056917e-05
8.83604273107292 -8.094911116197452e-05
8.839949027594173 -8.369573510337986e-05
8.843855324115426 -8.644235904478523e-05
8.847761620636678 -8.903639276722363e-05
8.85166791715793 -9.147783627069505e-05
8.855574213679182 -9.391927977416647e-05
8.859480510200434 -9.620813305867094e-05
8.863386806721687 -9.84969863431754e-05
8.86729310324294 -0.0001006332494087129
8.871199399764192 -0.0001027695124742504
8.875105696285445 -0.00010505836575875486
8.879011992806698 -0.00010734721904325932
8.88291828932795 -0.00010963607232776379
8.886824585849201 -0.00011192492561226826
8.890730882370454 -0.00011421377889677272
8.894637178891706 -0.00011665522240024415
8.898543475412959 -0.00011909666590371556
8.902449771934211 -0.000121538109407187
8.906356068455464 -0.00012397955291065842
8.910262364976717 -0.0001265735866330968
8.914168661497968 -0.00012916762035553522
8.91807495801922 -0.00013160906385900666
8.921981254540473 -0.00013405050736247807
8.925887551061725 -0.0001364919508659495
8.929793847582978 -0.00013878080415045396
8.93370014410423 -0.00014106965743495843
8.937606440625483 -0.0001432059205004959
8.941512737146736 -0.00014534218356603343
8.945419033667987 -0.00014747844663157093
8.94932533018924 -0.0001496147096971084
8.953231626710492 -0.00015190356298161288
8.957137923231745 -0.00015419241626611735
8.961044219752997 -0.00015663385976958876
8.96495051627425 -0.00015907530327306018
8.968856812795503 -0.00016151674677653165
8.972763109316755 -0.0001638056000610361
8.976669405838006 -0.00016609445334554054
8.980575702359259 -0.00016823071641107806
8.984481998880511 -0.00017036697947661557
8.988388295401764 -0.00017250324254215304
8.992294591923017 -0.00017463950560769054
8.99620088844427 -0.000176928358892195
9.000107184965522 -0.00017936980239566645
9.004013481486773 -0.00018181124589913787
9.007919778008025 -0.00018440527962157628
9.011826074529278 -0.00018699931334401467
9.01573237105053 -0.00018959334706645305
9.019638667571783 -0.0001920347905699245
9.023544964093036 -0.0001944762340733959
9.027451260614288 -0.00019676508735790035
9.031357557135541 -0.00019890135042343785
9.035263853656792 -0.00020103761348897538
9.039170150178045 -0.00020317387655451285
9.043076446699297 -0.00020531013962005036
9.04698274322055 -0.00020744640268558788
9.050889039741802 -0.00020958266575112536
9.054795336263055 -0.00021171892881666286
9.058701632784308 -0.00021385519188220033
9.06260792930556 -0.00021599145494773786
9.066514225826811 -0.0002179751277943084
9.070420522348064 -0.00021995880064087892
9.074326818869316 -0.00022194247348744945
9.078233115390569 -0.00022392614633402
9.082139411911822 -0.00022590981918059054
9.086045708433074 -0.00022789349202716105
9.089952004954327 -0.00022987716487373158
9.093858301475578 -0.00023186083772030214
9.09776459799683 -0.00023384451056687267
9.101670894518083 -0.0002358281834134432
9.105577191039336 -0.00023765926604104676
9.109483487560588 -0.00023949034866865035
9.113389784081841 -0.00024116884107728697
9.117296080603094 -0.00024284733348592356
9.121202377124346 -0.00024452582589456015
9.125108673645597 -0.00024620431830319676
9.12901497016685 -0.0002477302204928664
9.132921266688102 -0.0002491035324635691
9.136827563209355 -0.00025047684443427177
9.140733859730608 -0.00025185015640497444
9.14464015625186 -0.00025307087815671015
9.148546452773113 -0.00025429159990844586
9.152452749294365 -0.0002553597314412146
9.156359045815616 -0.00025642786297398333
9.160265342336869 -0.00025749599450675207
9.164171638858122 -0.0002585641260395209
9.168077935379374 -0.00025963225757228965
9.171984231900627 -0.0002605477988860914
9.17589052842188 -0.0002614633401998932
9.179796824943132 -0.000262531471732662
9.183703121464383 -0.0002635996032654307
9.187609417985636 -0.00026466773479819945
9.191515714506888 -0.0002657358663309682
9.19542201102814 -0.00026665140764476996
9.199328307549393 -0.0002675669489585718
9.203234604070646 -0.0002683299000534066
9.207140900591899 -0.00026894026092927445
9.211047197113151 -0.0002693980315861753
9.214953493634402 -0.0002698558022430762
9.218859790155655 -0.0002703135728999771
9.222766086676907 -0.000270771343556878
9.22667238319816 -0.00027138170443274587
9.230578679719413 -0.00027214465552758066
9.234484976240665 -0.00027306019684138243
9.238391272761918 -0.0002741283283741512
9.24229756928317 -0.00027534905012588693
9.246203865804421 -0.0002765697718776227
9.250110162325674 -0.0002779430838483253
9.254016458846927 -0.000279316395819028
9.25792275536818 -0.0002805371175707637
9.261829051889432 -0.0002817578393224994
9.265735348410685 -0.00028297856107423517
9.269641644931937 -0.0002841992828259709
9.273547941453188 -0.0002854200045777066
9.27745423797444 -0.00028679331654840926
9.281360534495693 -0.0002881666285191119
9.285266831016946 -0.0002895399404898146
9.289173127538199 -0.0002907606622415503
9.293079424059451 -0.00029198138399328603
9.296985720580704 -0.00029320210574502174
9.300892017101956 -0.0002944228274967575
9.304798313623207 -0.0002956435492484932
9.30870461014446 -0.00029671168078126194
9.312610906665713 -0.0002976272220950637
9.316517203186965 -0.0002983901731898985
9.320423499708218 -0.00029869535362783245
9.32432979622947 -0.0002983901731898985
9.328236092750723 -0.00029701686121919583
9.332142389271976 -0.00029411764705882356
9.336048685793227 -0.00028892957961394673
9.33995498231448 -0.00028068970778973067
9.343861278835732 -0.0002683299000534066
9.347767575356984 -0.00025108720531013965
9.351673871878237 -0.00022804608224612802
9.35558016839949 -0.00019844357976653697
9.359486464920742 -0.00016182192721446556
9.363392761441995 -0.00011818112458991378
9.367299057963246 -6.813153276874952e-05
9.371205354484498 -1.2741283283741512e-05
9.375111651005751 4.631113145647364e-05
9.379017947527004 0.00010688944838635844
9.382924244048256 0.00016639963378347448
9.386830540569509 0.00022224765392538337
9.390736837090762 0.00027214465552758066
9.394643133612012 0.0003142595559624628
9.398549430133265 0.000347676813916228
9.402455726654518 0.0003720912489509423
9.40636202317577 0.0003881132219424735
9.410268319697023 0.0003968108644235904
9.414174616218276 0.0003998626688029298
9.418080912739528 0.000398947127489128
9.42198720926078 0.0003957427328908217
9.425893505782032 0.00039162279697871365
9.429799802303284 0.0003873502708476387
9.433706098824537 0.0003835355153734646
9.43761239534579 0.0003801785305561913
9.441518691867042 0.00037727931639581905
9.445424988388295 0.0003745326924544137
9.449331284909547 0.0003716334782940414
9.4532375814308 0.0003684290836957351
9.457143877952051 0.00036476691844052793
9.461050174473304 0.00036079957274738687
9.464956470994556 0.0003565270466163119
9.468862767515809 0.00035210193026626995
9.472769064037061 0.00034737163347829404
9.476675360558314 0.0003424887464713512
9.480581657079567 0.00033730067902647444
9.484487953600818 0.0003318074311436637
9.48839425012207 0.0003260090028229191
9.492300546643323 0.0003197528038452735
9.496206843164575 0.0003130388342107271
9.500113139685828 0.00030586709391927983
9.50401943620708 0.0002983901731898985
9.507925732728333 0.0002907606622415503
9.511832029249586 0.0002831311512932021
9.515738325770837 0.0002755016403448539
9.51964462229209 0.00026802471961547263
9.523550918813342 0.00026085297932402536
9.527457215334595 0.0002539864194705119
9.531363511855847 0.00024727244983596556
9.5352698083771 0.00024086366063935302
9.539176104898353 0.0002346074616617075
9.543082401419605 0.00022865644312199587
9.546988697940856 0.00022285801480125125
9.550894994462109 0.00021736476691844054
9.554801290983361 0.00021202410925459677
9.558707587504614 0.00020698863202868697
9.562613884025867 0.0002022583352407111
9.56652018054712 0.00019768062867170214
9.570426477068372 0.00019340810254062717
9.574332773589623 0.00018944075684748608
9.578239070110875 0.00018577859159227896
9.582145366632128 0.00018242160677500572
9.58605166315338 0.00017936980239566645
9.589957959674633 0.00017647058823529413
9.593864256195886 0.00017387655451285572
9.597770552717138 0.0001714351110093843
9.601676849238391 0.0001689936675059129
9.605583145759642 0.0001667048142214084
9.609489442280895 0.00016441596093690395
9.613395738802147 0.0001621271076523995
9.6173020353234 0.000159838254367895
9.621208331844652 0.0001573968108644236
9.625114628365905 0.0001548027771419852
9.629020924887158 0.00015190356298161288
9.63292722140841 0.00014869916838330664
9.636833517929661 0.0001450370031280995
9.640739814450914 0.00014091706721599146
9.644646110972166 0.00013633936064698252
9.648552407493419 0.0001314564736400397
9.652458704014672 0.0001262684061951629
9.656365000535924 0.00012108033875028611
9.660271297057177 0.0001160448615243763
9.664177593578428 0.00011116197451743343
9.66808389009968 0.00010673685816739147
9.671990186620933 0.00010292210269321736
9.675896483142186 9.971770809491112e-05
9.679802779663438 9.712367437247273e-05
9.683709076184691 9.514000152590218e-05
9.687615372705944 9.376668955519952e-05
9.691521669227196 9.300373846036469e-05
9.695427965748447 9.285114824139774e-05
9.6993342622697 9.315632867933166e-05
9.703240558790952 9.391927977416647e-05
9.707146855312205 9.498741130693522e-05
9.711053151833458 9.636072327763792e-05
9.71495944835471 9.80392156862745e-05
9.718865744875963 9.98702983138781e-05
9.722772041397215 0.00010185397116044861
9.726678337918466 0.00010383764400701916
9.730584634439719 0.00010597390707255664
9.734490930960972 0.00010811017013809416
9.738397227482224 0.00011024643320363165
9.742303524003477 0.00011238269626916915
9.74620982052473 0.00011451895933470665
9.750116117045982 0.00011650263218127718
9.754022413567233 0.00011833371480888075
9.757928710088486 0.0001198596169985504
9.761835006609738 0.00012108033875028611
9.76574130313099 0.00012199588006408789
9.769647599652243 0.00012260624093995574
9.773553896173496 0.00012306401159685665
9.777460192694749 0.00012321660181582362
9.781366489216001 0.00012321660181582362
9.785272785737252 0.00012306401159685665
9.789179082258505 0.0001227588311589227
9.793085378779757 0.00012230106050202183
9.79699167530101 0.000121538109407187
9.800897971822263 0.00012031738765545128
9.804804268343515 0.00011879148546578164
9.808710564864768 0.0001168078126192111
9.81261686138602 0.00011451895933470665
9.816523157907271 0.0001117723353933013
9.820429454428524 0.00010872053101396201
9.824335750949777 0.00010536354619668879
9.82824204747103 0.00010185397116044861
9.832148343992282 9.80392156862745e-05
9.836054640513535 9.42244602121004e-05
9.839960937034787 9.025711451895934e-05
9.843867233556038 8.61371786068513e-05
9.84777353007729 8.201724269474327e-05
9.851679826598543 7.789730678263524e-05
9.855586123119796 7.362478065156024e-05
9.859492419641048 6.935225452048524e-05
9.863398716162301 6.507972838941025e-05
9.867305012683554 6.0654612039368275e-05
9.871211309204806 5.607690547035935e-05
9.875117605726057 5.1499198901350423e-05
9.87902390224731 4.69214923323415e-05
9.882930198768562 4.2496375982299535e-05
9.886836495289815 3.822384985122454e-05
9.890742791811068 3.410391393911651e-05
9.89464908833232 3.0136568245975435e-05
9.898555384853573 2.6169222552834366e-05
9.902461681374826 2.2354467078660257e-05
9.906367977896076 1.838712138551919e-05
9.910274274417329 1.441977569237812e-05
9.914180570938582 1.0299839780270084e-05
9.918086867459834 6.027313649195087e-06
9.921993163981087 1.7547875181200889e-06
9.92589946050234 -2.5177386129549093e-06
9.929805757023592 -6.637674525062944e-06
9.933712053544843 -1.0605020218204014e-05
9.937618350066096 -1.4419775692378118e-05
9.941524646587348 -1.8234531166552225e-05
9.945430943108601 -2.1896696421759364e-05
9.949337239629854 -2.5406271457999542e-05
9.953243536151106 -2.891584649423972e-05
9.957149832672359 -3.24254215304799e-05
9.961056129193611 -3.593499656672007e-05
9.964962425714862 -3.944457160296025e-05
9.968868722236115 -4.280155642023346e-05
9.972775018757368 -4.615854123750668e-05
9.97668131527862 -4.936293583581292e-05
9.980587611799873 -5.2567330434119174e-05
9.984493908321125 -5.5619134813458456e-05
9.988400204842378 -5.8670939192797744e-05
9.99230650136363 -6.172274357213703e-05
9.996212797884882 -6.477454795147632e-05
10.000119094406134 -6.782635233081559e-05
10.004025390927387 -7.087815671015488e-05
10.00793168744864 -7.392996108949417e-05
10.011837983969892 -7.682917524986649e-05
10.015744280491145 -7.957579919127183e-05
10.019650577012397 -8.23224231326772e-05
10.023556873533648 -8.49164568551156e-05
10.0274631700549 -8.751049057755397e-05
10.031369466576153 -9.010452429999237e-05
10.035275763097406 -9.269855802243077e-05
10.039182059618659 -9.544518196383611e-05
10.043088356139911 -9.819180590524148e-05
10.046994652661164 -0.00010093842984664683
10.050900949182417 -0.0001036850537880522
10.054807245703667 -0.00010643167772945754
10.05871354222492 -0.00010933089188982987
10.062619838746173 -0.00011223010605020219
10.066526135267425 -0.0001151293202105745
10.070432431788678 -0.00011787594415197986
10.07433872830993 -0.00012062256809338521
10.078245024831183 -0.00012336919203479057
10.082151321352436 -0.00012596322575722895
10.086057617873687 -0.0001284046692607004
10.08996391439494 -0.00013084611276417183
10.093870210916192 -0.00013313496604867628
10.097776507437445 -0.0001355764095521477
10.101682803958697 -0.00013801785305561913
10.10558910047995 -0.00014061188677805752
10.109495397001202 -0.0001432059205004959
10.113401693522453 -0.00014579995422293432
10.117307990043706 -0.0001483939879453727
10.121214286564959 -0.00015098802166781108
10.125120583086211 -0.0001535820553902495
10.129026879607464 -0.00015617608911268788
10.132933176128716 -0.00015877012283512627
10.136839472649969 -0.0001612115663385977
10.140745769171222 -0.00016365300984206912
10.144652065692473 -0.0001659418631265736
10.148558362213725 -0.00016823071641107806
10.152464658734978 -0.0001705195696955825
10.15637095525623 -0.00017280842298008698
10.160277251777483 -0.00017509727626459142
10.164183548298736 -0.00017753871976806287
10.168089844819988 -0.0001799801632715343
10.171996141341241 -0.00018242160677500572
10.175902437862492 -0.00018486305027847716
10.179808734383744 -0.00018730449378194858
10.183715030904997 -0.00018974593728542
10.18762132742625 -0.0001920347905699245
10.191527623947502 -0.00019432364385442894
10.195433920468755 -0.0001966124971389334
10.199340216990008 -0.00019890135042343785
10.203246513511258 -0.00020119020370794232
10.207152810032511 -0.00020332646677347982
10.211059106553764 -0.00020546272983901733
10.214965403075016 -0.0002077515831235218
10.218871699596269 -0.00021004043640802624
10.222777996117522 -0.00021217669947356374
10.226684292638774 -0.00021431296253910124
10.230590589160027 -0.00021644922560463874
10.234496885681278 -0.00021858548867017625
10.23840318220253 -0.00022072175173571375
10.242309478723783 -0.00022270542458228428
10.246215775245036 -0.0002246890974288548
10.250122071766288 -0.00022667277027542534
10.25402836828754 -0.00022865644312199587
10.257934664808793 -0.00023048752574959943
10.261840961330046 -0.00023216601815823608
10.265747257851297 -0.00023384451056687267
10.26965355437255 -0.00023552300297550926
10.273559850893802 -0.00023720149538414588
10.277466147415055 -0.0002388799877927825
10.281372443936307 -0.0002405584802014191
10.28527874045756 -0.0002422369726100557
10.289185036978813 -0.0002439154650186923
10.293091333500064 -0.0002455939574273289
10.296997630021316 -0.0002471198596169986
10.300903926542569 -0.00024849317158770126
10.304810223063821 -0.0002498664835584039
10.308716519585074 -0.00025108720531013965
10.312622816106327 -0.00025230792706187535
10.31652911262758 -0.00025352864881361106
10.320435409148832 -0.00025474937056534677
10.324341705670083 -0.00025612268253604945
10.328248002191335 -0.00025749599450675207
10.332154298712588 -0.00025902189669642177
10.33606059523384 -0.0002605477988860914
10.339966891755093 -0.00026207370107576107
10.343873188276346 -0.0002635996032654307
10.347779484797599 -0.0002649729152361334
10.351685781318851 -0.0002661936369878691
10.355592077840102 -0.00026726176852063784
10.359498374361355 -0.0002681773098344396
10.363404670882607 -0.00026909285114824137
10.36731096740386 -0.0002700083924620432
10.371217263925113 -0.00027092393377584496
10.375123560446365 -0.0002718394750896467
10.379029856967618 -0.00027290760662241546
10.382936153488869 -0.0002741283283741512
10.386842450010121 -0.00027534905012588693
10.390748746531374 -0.0002765697718776227
10.394655043052627 -0.0002779430838483253
10.39856133957388 -0.000279316395819028
10.402467636095132 -0.0002805371175707637
10.406373932616384 -0.0002817578393224994
10.410280229137637 -0.0002828259708552682
10.414186525658888 -0.00028374151216906997
10.41809282218014 -0.00028450446326390476
10.421999118701393 -0.0002852674143587396
10.425905415222646 -0.0002860303654535744
10.429811711743898 -0.00028679331654840926
10.433718008265151 -0.00028770885786221103
10.437624304786404 -0.0002886243991760128
10.441530601307656 -0.0002895399404898146
10.445436897828907 -0.00029045548180361644
10.44934319435016 -0.0002913710231174182
10.453249490871412 -0.000292133974212253
10.457155787392665 -0.00029289692530708785
10.461062083913918 -0.00029365987640192265
10.46496838043517 -0.0002944228274967575
10.468874676956423 -0.0002950331883726253
10.472780973477674 -0.00029549095902952624
10.476687269998926 -0.0002959487296864271
10.480593566520179 -0.000296406500343328
10.484499863041432 -0.0002968642710002289
10.488406159562684 -0.00029732204165712977
10.492312456083937 -0.0002977798123140307
10.49621875260519 -0.0002982375829709316
10.500125049126442 -0.0002988479438467994
10.504031345647693 -0.0002996108949416342
10.507937642168946 -0.00030052643625543603
10.511843938690198 -0.00030159456778820477
10.515750235211451 -0.0003028152895399405
10.519656531732704 -0.0003040360112916762
10.523562828253956 -0.0003054093232623789
10.527469124775209 -0.00030693522545204857
10.531375421296461 -0.0003084611276417182
10.535281717817712 -0.0003099870298313878
10.539188014338965 -0.0003113603418020905
10.543094310860218 -0.00031273365377279316
10.54700060738147 -0.00031410696574349584
10.550906903902723 -0.0003154802777141985
10.554813200423975 -0.0003168535896849012
10.558719496945228 -0.00031822690165560387
10.562625793466479 -0.00031960021362630655
10.566532089987732 -0.0003209735255970093
10.570438386508984 -0.000322194247348745
10.574344683030237 -0.0003232623788815137
10.57825097955149 -0.0003240253299763485
10.582157276072742 -0.00032433051041428246
10.586063572593995 -0.00032387273975738155
10.589969869115247 -0.00032234683756771196
10.593876165636498 -0.00031898985275043867
10.59778246215775 -0.00031319142442969407
10.601688758679003 -0.0003038834210727092
10.605595055200256 -0.0002899977111467155
10.609501351721509 -0.00027046616311894405
10.613407648242761 -0.0002443732356755932
10.617313944764014 -0.00021080338750286106
10.621220241285267 -0.00016960402838178074
10.625126537806517 -0.00012077515831235218
10.62903283432777 -6.492713817044328e-05
10.632939130849023 -3.585870145723659e-06
10.636845427370275 6.111238269626917e-05
10.640751723891528 0.00012687876707103075
10.64465802041278 0.0001909666590371557
10.648564316934033 0.0002507820248722057
10.652470613455284 0.0003040360112916762
10.656376909976537 0.0003488975356679637
10.66028320649779 0.0003844510566872664
10.664189503019042 0.0004103913939116503
10.668095799540295 0.00042732890821698327
10.672002096061547 0.00043648432135500115
10.6759083925828 0.00043953612573434045
10.679814689104052 0.00043831540398260474
10.683720985625303 0.00043450064850843065
10.687627282146556 0.0004293125810635538
10.691533578667809 0.0004239719233997101
10.695439875189061 0.0004189364461738003
10.699346171710314 0.0004145113298237583
10.703252468231566 0.00041069657434958417
10.707158764752819 0.000407339589532311
10.711065061274072 0.0004042877851529717
10.714971357795323 0.00040123598077363245
10.718877654316575 0.00039787899595635916
10.722783950837828 0.00039421683070115204
10.72669024735908 0.000390249485008011
10.730596543880333 0.00038582436865796906
10.734502840401586 0.0003807888914320592
10.738409136922838 0.0003752956435492485
10.74231543344409 0.00036934462500953693
10.746221729965342 0.00036278324559395743
10.750128026486594 0.00035591668574044404
10.754034323007847 0.00034859235523002974
10.7579406195291 0.00034111543450064853
10.761846916050352 0.0003333333333333333
10.765753212571605 0.0003253986419470512
10.769659509092858 0.000317463950560769
10.773565805614108 0.00030952925917448695
10.777472102135361 0.00030174715800717174
10.781378398656614 0.00029411764705882356
10.785284695177866 0.00028679331654840926
10.789190991699119 0.00027962157625696193
10.793097288220372 0.0002726024261844816
10.797003584741624 0.0002657358663309682
10.800909881262877 0.00025917448691538874
10.804816177784128 0.0002527656977187762
10.80872247430538 0.0002466620889600977
10.812628770826633 0.00024086366063935302
10.816535067347886 0.00023537041275654232
10.820441363869138 0.00023018234531166552
10.82434766039039 0.0002252994583047227
10.828253956911643 0.00022072175173571375
10.832160253432894 0.0002162966353856718
10.836066549954147 0.00021217669947356374
10.8399728464754 0.00020820935378042268
10.843879142996652 0.00020439459830624856
10.847785439517905 0.0002008850232700084
10.851691736039157 0.00019752803845273517
10.85559803256041 0.0001944762340733959
10.859504329081663 0.00019172961013199055
10.863410625602913 0.00018913557640955214
10.867316922124166 0.0001868467231250477
10.871223218645419 0.0001847104600595102
10.875129515166671 0.0001825741969939727
10.879035811687924 0.00018028534370946822
10.882942108209177 0.00017769130998702984
10.88684840473043 0.0001747920958266575
10.890754701251682 0.00017158770122835127
10.894660997772933 0.0001680781261921111
10.898567294294185 0.00016411078049897003
10.902473590815438 0.000159838254367895
10.90637988733669 0.0001552605477988861
10.910286183857943 0.00015037766079194323
10.914192480379196 0.00014534218356603343
10.918098776900448 0.0001403067063401236
10.9220050734217 0.00013527122911421378
10.925911369942952 0.00013038834210727092
10.929817666464205 0.000125810635538262
10.933723962985457 0.000121538109407187
10.93763025950671 0.00011787594415197986
10.941536556027962 0.00011497672999160753
10.945442852549215 0.00011284046692607004
10.949349149070468 0.00011146715495536737
10.953255445591719 0.0001108567940794995
10.957161742112971 0.00011100938429846647
10.961068038634224 0.0001117723353933013
10.964974335155476 0.000112993057145037
10.968880631676729 0.00011451895933470665
10.972786928197982 0.00011635004196231022
10.976693224719234 0.00011833371480888075
10.980599521240487 0.00012031738765545128
10.984505817761738 0.00012230106050202183
10.98841211428299 0.00012428473334859236
10.992318410804243 0.0001262684061951629
10.996224707325496 0.00012809948882276645
11.000131003846748 0.00012993057145037004
11.004037300368001 0.00013160906385900666
11.007943596889254 0.00013328755626764325
11.011849893410504 0.00013481345845731287
11.015756189931757 0.00013633936064698252
11.01966248645301 0.00013771267261768522
11.023568782974262 0.00013893339436942093
11.027475079495515 0.00014000152590218967
11.031381376016768 0.00014091706721599146
11.03528767253802 0.0001415274280918593
11.039193969059273 0.0001419851987487602
11.043100265580524 0.0001419851987487602
11.047006562101776 0.0001415274280918593
11.050912858623029 0.0001407644769970245
11.054819155144282 0.00013954375524528878
11.058725451665534 0.00013801785305561913
11.062631748186787 0.0001360341802090486
11.06653804470804 0.00013374532692454413
11.070444341229292 0.00013115129320210575
11.074350637750543 0.00012825207904173342
11.078256934271796 0.00012520027466239415
11.082163230793048 0.00012184328984512093
11.0860695273143 0.00011833371480888075
11.089975823835553 0.0001146715495536736
11.093882120356806 0.00011070420386053254
11.097788416878059 0.00010658426794842451
11.10169471339931 0.00010231174181734951
11.105601009920562 9.80392156862745e-05
11.109507306441815 9.361409933623255e-05
11.113413602963067 8.918898298619059e-05
11.11731989948432 8.476386663614863e-05
11.121226196005573 8.033875028610667e-05
11.125132492526825 7.606622415503165e-05
11.129038789048078 7.179369802395666e-05
11.132945085569329 6.752117189288166e-05
11.136851382090581 6.324864576180667e-05
11.140757678611834 5.897611963073167e-05
11.144663975133087 5.455100328068971e-05
11.14857027165434 4.997329671168078e-05
11.152476568175592 4.539559014267185e-05
11.156382864696845 4.081788357366293e-05
11.160289161218097 3.624017700465401e-05
11.164195457739348 3.1815060654612036e-05
11.1681017542606 2.754253452353704e-05
11.172008050781853 2.3422598611429008e-05
11.175914347303106 1.9302662699320976e-05
11.179820643824359 1.518272678721294e-05
11.183726940345611 1.1062790875104906e-05
11.187633236866864 6.942854962996872e-06
11.191539533388115 2.8229190508888387e-06
11.195445829909367 -1.4496070801861598e-06
11.19935212643062 -5.722133211261158e-06
11.203258422951873 -9.842069123369192e-06
11.207164719473125 -1.3656824597543298e-05
11.211071015994378 -1.731898985275044e-05
11.21497731251563 -2.067597467002365e-05
11.218883609036883 -2.3880369268329898e-05
11.222789905558134 -2.708476386663615e-05
11.226696202079387 -3.02891584649424e-05
11.23060249860064 -3.349355306324865e-05
11.234508795121892 -3.685053788052186e-05
11.238415091643144 -4.020752269779508e-05
11.242321388164397 -4.3564507515068286e-05
11.24622768468565 -4.69214923323415e-05
11.250133981206902 -5.027847714961471e-05
11.254040277728153 -5.3482871747920954e-05
11.257946574249406 -5.6687266346227206e-05
11.261852870770658 -5.989166094453346e-05
11.265759167291911 -6.30960555428397e-05
11.269665463813164 -6.630045014114595e-05
11.273571760334416 -6.950484473945221e-05
11.277478056855669 -7.270923933775846e-05
11.28138435337692 -7.59136339360647e-05
11.285290649898172 -7.896543831540398e-05
11.289196946419425 -8.201724269474327e-05
11.293103242940678 -8.49164568551156e-05
11.29700953946193 -8.766308079652094e-05
11.300915835983183 -9.04097047379263e-05
11.304822132504436 -9.300373846036469e-05
11.308728429025688 -9.559777218280308e-05
11.312634725546939 -9.834439612420843e-05
11.316541022068192 -0.00010124361028458076
11.320447318589444 -0.00010414282444495308
11.324353615110697 -0.0001070420386053254
11.32825991163195 -0.00010994125276569772
11.332166208153202 -0.00011284046692607004
11.336072504674455 -0.0001155870908674754
11.339978801195707 -0.00011833371480888075
